Name
Date of Birth,"Mar 15, 1999"
Recorded Date,2022-06-16 16:47:51 -0700
Classification,High Heart Rate
Symptoms,
Software Version,1.90
Device,"Watch4,1"
Sample Rate,513.656 hertz


Lead,Lead I
Unit,µV

-27.806
-22.897
-18.218
-13.763
-9.522
-5.489
-1.661
1.968
5.403
8.65
11.713
14.593
17.285
19.794
22.127
24.3
26.328
28.224
29.993
31.644
33.189
34.637
35.998
37.274
38.452
39.537
40.554
41.55
42.597
43.755
45.05
46.507
48.153
49.975
51.939
53.955
55.861
57.537
58.899
59.895
60.532
60.811
60.702
60.167
59.129
57.483
55.174
52.134
48.28
43.67
38.426
32.757
27.118
21.971
17.627
14.295
11.897
10.024
8.312
6.574
4.555
1.892
-1.672
-6.073
-10.519
-13.433
-13.284
-9.417
-1.458
11.631
30.742
55.942
84.189
108.926
124.05
126.854
121.832
115.875
111.575
104.995
78.821
13.799
-100.907
-267.887
-468.248
-670.813
-845.617
-961.718
-1002.534
-970.013
-872.486
-727.616
-559.624
-386.072
-225.378
-98.22
-12.837
28.358
29.701
10.24
-12.76
-30.822
-38.347
-38.914
-42.041
-49.07
-59.669
-73.676
-84.186
-88.464
-87.039
-78.597
-66.123
-52.882
-39.981
-28.809
-19.486
-11.317
-4.107
2.326
8.423
14.783
22.166
31.092
41.643
53.619
66.61
80.18
94.017
107.865
121.5
134.816
147.767
160.354
172.682
184.836
196.84
208.651
220.124
231.119
241.572
251.464
260.828
269.745
278.257
286.388
294.185
301.662
308.808
315.598
321.96
327.806
333.076
337.737
341.776
345.196
347.983
350.112
351.562
352.307
352.329
351.607
350.112
347.818
344.714
340.799
336.086
330.598
324.356
317.38
309.699
301.341
292.335
282.715
272.511
261.756
250.49
238.754
226.595
214.061
201.205
188.075
174.723
161.202
147.561
133.85
120.117
106.411
92.782
79.278
65.949
52.839
39.99
27.445
15.241
3.412
-8.012
-19.008
-29.554
-39.628
-49.212
-58.29
-66.848
-74.872
-82.349
-89.263
-95.607
-101.377
-106.577
-111.214
-115.298
-118.844
-121.873
-124.413
-126.489
-128.121
-129.327
-130.121
-130.521
-130.55
-130.236
-129.601
-128.671
-127.469
-126.027
-124.387
-122.577
-120.608
-118.471
-116.122
-113.537
-110.722
-107.679
-104.416
-100.967
-97.378
-93.751
-90.25
-86.997
-84.082
-81.557
-79.415
-77.666
-76.329
-75.431
-75.032
-75.188
-75.937
-77.346
-79.479
-82.287
-85.668
-89.379
-93.033
-96.306
-98.83
-100.35
-100.858
-100.512
-99.682
-98.735
-97.82
-97.144
-97.206
-98.193
-99.795
-101.198
-100.932
-98.097
-92.477
-83.426
-69.958
-51.201
-29.023
-8.878
3.514
3.753
-4.589
-11.214
-10.744
-2.968
-3.018
-38.342
-128.354
-283.406
-487.004
-698.292
-875.162
-977.385
-994.57
-946.039
-858.176
-762.5
-668.906
-566.4
-448.5
-314.861
-182.872
-81.316
-25.107
-11.744
-23.285
-37.622
-43.654
-42.313
-41.72
-47.314
-57.965
-69.389
-76.532
-77.54
-73.58
-66.238
-57.004
-47.172
-38.006
-30.375
-24.628
-20.65
-17.894
-15.779
-13.888
-11.603
-8.06
-2.761
4.521
13.836
24.874
37.337
50.949
65.234
79.795
94.42
108.952
123.366
137.72
151.981
166.12
180.136
193.916
207.367
220.415
232.948
244.927
256.369
267.315
277.874
288.142
298.153
307.917
317.418
326.606
335.437
343.85
351.755
359.098
365.837
371.936
377.379
382.139
386.173
389.44
391.892
393.478
394.156
393.893
392.66
390.444
387.238
383.047
377.89
371.789
364.762
356.832
348.02
338.352
327.86
316.577
304.54
291.787
278.367
264.33
249.731
234.629
219.081
203.144
186.88
170.347
153.608
136.725
119.76
102.772
85.821
68.965
52.259
35.754
19.498
3.535
-12.096
-27.355
-42.207
-56.619
-70.561
-84.005
-96.923
-109.285
-121.067
-132.251
-142.825
-152.782
-162.119
-170.837
-178.943
-186.457
-193.398
-199.783
-205.627
-210.941
-215.743
-220.053
-223.896
-227.295
-230.277
-232.864
-235.088
-236.993
-238.61
-239.961
-241.046
-241.836
-242.311
-242.478
-242.345
-241.926
-241.242
-240.334
-239.282
-238.233
-237.333
-236.688
-236.361
-236.368
-236.732
-237.494
-238.693
-240.38
-242.571
-245.268
-248.518
-252.386
-256.883
-261.919
-267.278
-272.589
-277.511
-281.755
-284.981
-287.008
-287.819
-287.593
-286.803
-285.913
-285.245
-285.231
-286.443
-289.036
-292.701
-296.542
-299.02
-299.154
-296.288
-289.142
-276.425
-257.607
-234.96
-213.776
-199.47
-195.178
-197.973
-202.737
-208.677
-220.055
-251.321
-318.259
-429.889
-587.676
-772.914
-958.588
-1114.447
-1209.255
-1236.682
-1201.805
-1119.298
-1016.606
-903.539
-787.721
-679.313
-578.141
-494.813
-436.223
-396.064
-371.691
-355.208
-341.214
-334.774
-337.741
-349.944
-369.167
-388.638
-404.046
-414.616
-420.428
-421.964
-419.217
-412.154
-401.371
-387.974
-372.762
-355.351
-335.352
-313.331
-290.369
-267.351
-244.814
-222.875
-201.776
-182.477
-165.672
-151.205
-138.352
-126.41
-115.01
-104.049
-93.42
-82.685
-71.465
-59.775
-47.942
-36.312
-25.03
-14.085
-3.395
7.021
17.076
26.751
36.095
45.175
54.012
62.568
70.749
78.475
85.701
92.397
98.544
104.117
109.079
113.403
117.076
120.084
122.423
124.086
125.068
125.365
124.982
123.922
122.194
119.808
116.771
113.09
108.771
103.823
98.263
92.109
85.387
78.121
70.342
62.081
53.374
44.26
34.777
24.967
14.872
4.534
-6.002
-16.692
-27.492
-38.358
-49.245
-60.111
-70.911
-81.602
-92.142
-102.49
-112.608
-122.458
-132.006
-141.223
-150.083
-158.563
-166.641
-174.298
-181.515
-188.277
-194.57
-200.38
-205.693
-210.493
-214.771
-218.526
-221.758
-224.471
-226.674
-228.379
-229.603
-230.372
-230.707
-230.625
-230.144
-229.278
-228.044
-226.462
-224.557
-222.348
-219.86
-217.121
-214.161
-211.022
-207.731
-204.302
-200.733
-196.999
-193.08
-188.98
-184.7
-180.236
-175.618
-170.893
-166.151
-161.547
-157.195
-153.171
-149.535
-146.301
-143.485
-141.121
-139.206
-137.753
-136.807
-136.402
-136.621
-137.558
-139.176
-141.373
-143.946
-146.516
-148.826
-150.61
-151.459
-151.249
-150.06
-148.068
-145.83
-143.798
-142.024
-140.924
-141.099
-142.333
-144.132
-145.701
-145.579
-142.989
-137.61
-128.097
-112.798
-93.423
-74.249
-59.039
-52.602
-52.684
-49.946
-43.673
-36.378
-37.495
-70.014
-144.167
-262.438
-423.145
-600.695
-771.074
-910.768
-988.673
-998.206
-940.443
-822.617
-674.875
-517.973
-372.43
-263.039
-191.414
-155.536
-147.708
-146.615
-144.077
-139.369
-133.271
-134.391
-144.783
-159.155
-173.044
-181.335
-181.411
-174.342
-161.672
-144.832
-125.514
-105.645
-86.5
-68.793
-52.899
-38.492
-25.168
-12.716
-0.641
11.703
24.646
38.312
52.66
67.403
82.328
97.323
112.198
126.763
140.924
154.647
167.958
180.934
193.619
206.029
218.192
230.138
241.882
253.426
264.756
275.852
286.694
297.268
307.558
317.543
327.195
336.482
345.373
353.83
361.818
369.297
376.229
382.574
388.298
393.37
397.763
401.455
404.424
406.654
408.131
408.845
408.787
407.948
406.321
403.902
400.689
396.689
391.907
386.355
380.049
373.01
365.262
356.835
347.758
338.067
327.8
316.999
305.708
293.973
281.843
269.368
256.598
243.587
230.384
217.041
203.609
190.136
176.675
163.277
149.991
136.864
123.941
111.263
98.869
86.796
75.072
63.725
52.781
42.262
32.188
22.579
13.453
4.829
-3.275
-10.846
-17.875
-24.357
-30.295
-35.695
-40.567
-44.928
-48.802
-52.213
-55.186
-57.743
-59.899
-61.672
-63.085
-64.16
-64.923
-65.4
-65.607
-65.568
-65.322
-64.895
-64.307
-63.561
-62.621
-61.462
-60.079
-58.472
-56.652
-54.641
-52.457
-50.165
-47.89
-45.761
-43.916
-42.453
-41.391
-40.757
-40.594
-40.93
-41.843
-43.374
-45.492
-48.219
-51.595
-55.6
-60.193
-65.201
-70.269
-75.062
-79.226
-82.332
-84.18
-84.744
-84.145
-82.821
-81.164
-79.342
-77.736
-76.953
-77.189
-78.146
-78.857
-77.617
-73.276
-65.452
-53.573
-36.646
-13.875
12.788
38.005
55.584
59.932
52.958
43.21
34.2
25.685
6.155
-47.224
-147.827
-300.111
-493.044
-697.028
-881.337
-1018.92
-1094.032
-1103.3
-1053.058
-953.061
-810.437
-640.693
-460.417
-291.14
-161.283
-81.077
-48.838
-50.558
-58.815
-60.231
-52.687
-39.953
-33.72
-36.905
-44.675
-52.605
-55.465
-51.597
-43.09
-31.708
-18.814
-5.92
5.764
15.6
23.306
29.025
33.319
36.746
39.763
43.124
47.757
54.186
62.622
73.077
85.339
99.185
114.425
130.669
147.363
164.149
180.817
197.265
213.538
229.606
245.363
260.74
275.661
290.049
303.856
317.002
329.386
340.981
351.804
361.928
371.5
380.606
389.273
397.513
405.305
412.62
419.442
425.726
431.403
436.431
440.778
444.425
447.375
449.611
451.107
451.831
451.744
450.814
449.024
446.359
442.811
438.386
433.095
426.964
420.031
412.333
403.904
394.781
384.996
374.587
363.593
352.056
340.019
327.529
314.638
301.4
287.871
274.108
260.165
246.098
231.961
217.806
203.683
189.644
175.739
162.019
148.533
135.326
122.44
109.918
97.792
86.094
74.852
64.085
53.812
44.051
34.814
26.114
17.961
10.368
3.343
-3.101
-8.961
-14.239
-18.941
-23.073
-26.65
-29.688
-32.21
-34.245
-35.819
-36.954
-37.667
-37.976
-37.901
-37.471
-36.71
-35.642
-34.29
-32.672
-30.816
-28.762
-26.528
-24.117
-21.507
-18.644
-15.492
-12.046
-8.301
-4.254
0.066
4.613
9.289
13.93
18.405
22.624
26.525
30.114
33.392
36.328
38.873
40.934
42.397
43.199
43.287
42.596
41.169
39.119
36.65
34.209
32.305
31.295
31.359
32.38
33.954
35.734
37.548
39.128
40.019
39.935
39.004
38.185
39.087
43.053
51.092
64.039
82.84
108.55
139.351
170.118
196.227
212.933
221.387
229.269
236.369
239.889
230.454
186.401
99.853
-31.702
-207.179
-401.517
-592.935
-756.449
-854.736
-874.378
-810.811
-672.211
-497.283
-318.557
-164.136
-55.143
14.839
57.909
87.988
118.483
149.295
174.821
188.19
184.876
167.019
140.708
113.453
90.685
74.369
64.688
60.862
62.098
67.932
77.249
88.243
99.022
108.366
115.906
121.744
126.31
130.041
133.432
137.293
142.469
149.414
158.176
168.516
179.969
192.07
204.493
216.945
229.203
241.177
252.843
264.243
275.462
286.561
297.529
308.268
318.665
328.615
338.071
347.039
355.569
363.747
371.645
379.321
386.807
394.102
401.18
407.995
414.48
420.555
426.158
431.259
435.842
439.898
443.414
446.361
448.708
450.419
451.462
451.799
451.397
450.228
448.272
445.522
441.982
437.667
432.591
426.768
420.217
412.954
404.998
396.371
387.091
377.182
366.669
355.584
343.961
331.84
319.261
306.266
292.898
279.2
265.216
250.985
236.548
221.944
207.212
192.393
177.528
162.656
147.817
133.05
118.391
103.877
89.538
75.402
61.49
47.824
34.424
21.309
8.494
-4.004
-16.167
-27.976
-39.406
-50.441
-61.067
-71.276
-81.06
-90.417
-99.346
-107.852
-115.948
-123.64
-130.93
-137.819
-144.301
-150.375
-156.045
-161.311
-166.171
-170.636
-174.713
-178.415
-181.778
-184.806
-187.489
-189.828
-191.79
-193.351
-194.519
-195.271
-195.57
-195.465
-195.02
-194.271
-193.329
-192.271
-191.118
-189.966
-188.894
-187.871
-186.848
-186.037
-185.711
-185.772
-186.268
-187.326
-188.516
-191.252
-196.82
-203.011
-208.87
-210.49
-203.297
-191.848
-179.229
-170.278
-171.833
-178.6
-186.114
-191.166
-188.434
-182.349
-177.092
-173.437
-173.142
-173.441
-171.801
-168.068
-160.857
-149.287
-133.142
-114.025
-97.106
-87.598
-87.545
-93.178
-96.526
-93.955
-91.803
-107.598
-163.53
-274.342
-436.209
-624.142
-802.378
-934.933
-1000.891
-1001.908
-951.301
-867.276
-763.024
-642.822
-511.985
-383.381
-277.572
-211.876
-192.947
-210.551
-240.526
-265.838
-278.661
-280.84
-283.708
-291.262
-301.523
-311.536
-315.819
-312.793
-304.586
-292.833
-279.407
-266.206
-253.899
-242.842
-233.386
-225.184
-217.725
-210.702
-203.681
-196.165
-187.95
-178.978
-169.262
-159.024
-148.468
-137.712
-126.933
-116.307
-105.912
-95.772
-85.864
-76.125
-66.519
-57.028
-47.624
-38.27
-28.946
-19.646
-10.384
-1.183
7.939
16.968
25.888
34.681
43.318
51.769
60.001
67.977
75.66
83.011
89.985
96.541
102.638
108.244
113.328
117.863
121.827
125.195
127.952
130.084
131.575
132.415
132.59
132.094
130.923
129.08
126.568
123.398
119.582
115.141
110.096
104.474
98.302
91.612
84.439
76.823
68.804
60.428
51.739
42.786
33.616
24.277
14.817
5.283
-4.282
-13.834
-23.33
-32.724
-41.975
-51.042
-59.887
-68.473
-76.769
-84.745
-92.38
-99.653
-106.552
-113.064
-119.179
-124.89
-130.192
-135.079
-139.547
-143.589
-147.204
-150.397
-153.176
-155.553
-157.546
-159.174
-160.461
-161.443
-162.149
-162.611
-162.852
-162.891
-162.745
-162.437
-161.988
-161.42
-160.748
-159.985
-159.153
-158.285
-157.405
-156.531
-155.654
-154.73
-153.723
-152.616
-151.388
-150.039
-148.57
-146.987
-145.35
-143.774
-142.382
-141.308
-140.629
-140.356
-140.503
-141.067
-142.07
-143.569
-145.59
-148.137
-151.23
-154.875
-159.057
-163.732
-168.701
-173.652
-178.211
-181.906
-184.423
-185.66
-185.669
-184.756
-183.298
-181.49
-179.567
-177.887
-176.613
-175.665
-174.411
-171.511
-165.613
-156.001
-142.674
-125.721
-104.943
-80.413
-53.458
-28.254
-11.276
-7.868
-19.688
-42.249
-68.62
-94.454
-120.915
-161.247
-230.493
-339.621
-493.026
-671.796
-847.503
-989.724
-1067.501
-1074.105
-1018.3
-915.127
-787.399
-649.065
-507.556
-374.316
-261.952
-180.253
-135.339
-121.488
-121.224
-122.349
-118.844
-111.55
-109.65
-116.531
-129.499
-144.407
-155.56
-160.767
-161.067
-157.437
-150.762
-141.884
-131.77
-121.89
-113.303
-106.248
-100.521
-95.652
-91.281
-87.088
-82.457
-76.653
-69.21
-60.045
-49.385
-37.687
-25.422
-12.928
-0.486
11.685
23.472
34.829
45.774
56.375
66.7
76.753
86.451
95.687
104.361
112.428
119.904
126.853
133.378
139.568
145.497
151.214
156.736
162.058
167.152
171.968
176.435
180.503
184.152
187.378
190.187
192.575
194.528
196.025
197.043
197.559
197.549
196.986
195.854
194.142
191.852
188.995
185.595
181.67
177.241
172.331
166.959
161.146
154.914
148.287
141.286
133.94
126.279
118.339
110.156
101.769
93.217
84.537
75.769
66.947
58.108
49.285
40.51
31.818
23.241
14.813
6.563
-1.48
-9.288
-16.838
-24.109
-31.088
-37.76
-44.117
-50.149
-55.849
-61.213
-66.233
-70.902
-75.209
-79.147
-82.711
-85.903
-88.727
-91.19
-93.305
-95.088
-96.563
-97.751
-98.674
-99.348
-99.781
-99.984
-99.968
-99.746
-99.334
-98.746
-97.993
-97.095
-96.078
-94.96
-93.752
-92.444
-90.995
-89.371
-87.555
-85.53
-83.294
-80.855
-78.224
-75.461
-72.676
-69.981
-67.492
-65.288
-63.382
-61.805
-60.582
-59.729
-59.298
-59.307
-59.73
-60.606
-61.974
-63.819
-66.122
-68.72
-71.311
-73.646
-75.4
-76.192
-75.818
-74.143
-71.212
-67.385
-62.988
-58.232
-53.537
-49.423
-46.175
-43.874
-41.865
-38.915
-34.259
-27.172
-16.647
-1.61
19.153
44.173
68.225
86.117
93.391
92.652
93.538
100.103
111.894
114.397
79.743
-9.67
-163.516
-370.218
-591.745
-792.224
-936.067
-999.893
-988.929
-913.048
-788
-638.393
-477.012
-320.362
-191.127
-96.341
-40.193
-17.673
-7.609
1.318
12.975
26.755
32.64
26.779
12.97
-3.639
-16.494
-22.564
-22.612
-17.923
-10.008
0.111
11.372
22.126
31.334
38.617
44.033
48.118
51.396
54.271
57.442
61.82
67.939
76.039
86.138
97.914
111.072
125.312
140.143
155.16
170.138
184.922
199.491
213.897
228.107
242.1
255.878
269.34
282.393
294.958
306.921
318.246
328.947
339.069
348.722
358.004
366.954
375.597
383.924
391.897
399.487
406.641
413.283
419.369
424.873
429.773
434.068
437.746
440.78
443.147
444.814
445.746
445.918
445.311
443.909
441.712
438.726
434.965
430.461
425.243
419.34
412.783
405.599
397.818
389.477
380.61
371.255
361.451
351.243
340.678
329.806
318.679
307.346
295.857
284.261
272.605
260.938
249.305
237.755
226.332
215.08
204.039
193.248
182.744
172.557
162.715
153.24
144.15
135.463
127.195
119.355
111.953
104.998
98.501
92.472
86.918
81.837
77.225
73.077
69.382
66.128
63.293
60.851
58.772
57.033
55.614
54.496
53.659
53.078
52.725
52.579
52.617
52.822
53.168
53.618
54.144
54.733
55.395
56.172
57.092
58.166
59.395
60.782
62.323
63.993
65.721
67.371
68.805
69.915
70.639
70.961
70.864
70.328
69.309
67.753
65.623
62.882
59.497
55.426
50.666
45.315
39.589
33.822
28.415
23.808
20.278
17.889
16.539
15.792
15.216
14.64
13.79
12.144
9.494
6.143
2.945
1.74
4.14
10.447
21.017
36.88
58.55
85.562
114.618
138.732
151.432
150.227
138.742
122.762
106.206
87.811
53.268
-12.707
-121.914
-281.043
-470.909
-660.674
-816.004
-900.587
-905.332
-840.738
-725.759
-587.892
-444.209
-303.232
-176.734
-76.87
-12.239
13.012
7.598
-8.858
-23.989
-32.607
-36.216
-43.928
-57.815
-73.716
-87.735
-95.049
-94.123
-86.794
-74.58
-58.75
-41.017
-23.075
-6.008
9.545
23.528
36.403
48.479
59.901
71.077
82.495
94.387
106.824
119.655
132.596
145.517
158.254
170.564
182.55
194.428
206.037
217.441
228.782
239.566
251.313
265.51
280.111
294.49
304.864
306.694
304.965
302.998
305.738
319.984
339.679
359.68
376.45
384.169
386.935
388.906
390.973
395.652
401.429
406.372
410.821
414.513
417.557
420.321
422.536
423.99
424.736
424.778
424.078
422.633
420.452
417.543
413.947
409.717
404.845
399.33
393.2
386.476
379.188
371.365
363.032
354.216
344.957
335.293
325.268
314.924
304.303
293.449
282.407
271.219
259.927
248.571
237.188
225.816
214.494
203.259
192.152
181.208
170.462
159.948
149.697
139.737
130.09
120.775
111.804
103.192
94.949
87.086
79.611
72.531
65.852
59.584
53.736
48.312
43.307
38.716
34.531
30.74
27.33
24.278
21.556
19.141
17.015
15.164
13.579
12.246
11.146
10.262
9.58
9.084
8.761
8.585
8.519
8.54
8.644
8.856
9.226
9.791
10.555
11.523
12.698
14.055
15.549
17.076
18.466
19.59
20.359
20.724
20.703
20.3
19.486
18.233
16.469
14.103
11.107
7.439
3.041
-2.014
-7.592
-13.472
-19.188
-24.29
-28.506
-31.681
-33.938
-35.672
-37.191
-38.632
-40.216
-42.237
-44.852
-47.967
-50.822
-52.017
-50.369
-45.491
-37.275
-25.175
-8.745
11.87
34.031
52.297
61.544
59.439
49.111
35.702
22.185
6.164
-25.132
-85.017
-183.437
-323.586
-488.496
-654.707
-794.604
-877.73
-895.885
-852.705
-762.776
-656.314
-550.976
-455.098
-371.929
-292.775
-215.164
-144.218
-84.435
-41.465
-16.907
-7.026
-7.677
-15.487
-27.167
-39.286
-49.066
-54.747
-55.902
-53.55
-48.456
-40.805
-31.241
-20.874
-10.797
-1.85
6.13
14.031
21.859
29.407
36.868
44.405
52.467
61.596
71.548
81.752
92.366
103.437
114.743
126.284
137.812
149.049
160.177
171.409
182.589
193.648
204.558
215.181
225.532
235.572
245.124
254.098
262.505
270.396
277.888
285.072
291.957
298.57
304.925
311.004
316.799
322.257
327.295
331.861
335.922
339.467
342.498
345.005
346.963
348.353
349.148
349.325
348.864
347.731
345.9
343.358
340.094
336.115
331.436
326.07
320.035
313.354
306.049
298.146
289.674
280.659
271.129
261.119
250.664
239.807
228.593
217.065
205.271
193.257
181.071
168.759
156.366
143.934
131.504
119.116
106.81
94.626
82.599
70.768
59.169
47.836
36.803
26.1
15.752
5.782
-3.793
-12.958
-21.702
-30.016
-37.897
-45.342
-52.35
-58.921
-65.058
-70.766
-76.055
-80.936
-85.426
-89.541
-93.3
-96.721
-99.82
-102.617
-105.127
-107.369
-109.36
-111.121
-112.672
-114.041
-115.261
-116.365
-117.39
-118.367
-119.319
-120.27
-121.236
-122.228
-123.26
-124.334
-125.44
-126.57
-127.715
-128.863
-130.013
-131.157
-132.285
-133.399
-134.509
-135.635
-136.825
-138.127
-139.588
-141.256
-143.17
-145.389
-148.02
-151.178
-154.983
-159.537
-164.891
-171.082
-178.153
-186.096
-194.851
-204.231
-213.87
-223.531
-233.19
-242.939
-253.051
-263.698
-274.818
-286.577
-299.346
-312.98
-326.825
-339.777
-350.159
-356.388
-357.158
-351.086
-337.171
-317.398
-296.08
-277.092
-263.596
-252.978
-239.749
-223.72
-209.856
-212.995
-250.494
-331.856
-457.652
-610.183
-763.941
-892.571
-969.579
-987.532
-948.86
-862.484
-750.047
-625.955
-503.071
-397.793
-316.287
-262.113
-234.431
-221.148
-212.208
-202.96
-192.068
-184.398
-183.573
-187.72
-193.023
-195.029
-191.412
-182.824
-170.943
-157.484
-143.495
-129.887
-117.639
-107.305
-99.165
-93.09
-88.517
-84.949
-81.958
-79.026
-75.772
-71.986
-67.413
-61.863
-55.372
-48.036
-40.111
-32.04
-24.061
-16.262
-8.733
-1.498
5.41
11.931
18.106
24.065
29.854
35.472
40.853
45.84
50.377
54.479
58.194
61.628
64.848
67.876
70.76
73.553
76.281
78.952
81.53
83.932
86.108
88.038
89.711
91.138
92.317
93.226
93.845
94.155
94.131
93.752
92.988
91.801
90.165
88.064
85.495
82.467
78.987
75.058
70.689
65.89
60.671
55.046
49.023
42.611
35.823
28.678
21.197
13.407
5.335
-2.989
-11.537
-20.275
-29.175
-38.208
-47.345
-56.56
-65.825
-75.111
-84.391
-93.636
-102.815
-111.902
-120.866
-129.68
-138.322
-146.773
-155.015
-163.034
-170.819
-178.357
-185.638
-192.658
-199.408
-205.875
-212.042
-217.889
-223.404
-228.582
-233.419
-237.91
-242.056
-245.861
-249.341
-252.523
-255.422
-258.045
-260.393
-262.458
-264.242
-265.76
-267.029
-268.063
-268.883
-269.503
-269.947
-270.254
-270.446
-270.521
-270.443
-270.14
-269.555
-268.662
-267.452
-265.935
-264.127
-262.05
-259.746
-257.288
-254.753
-252.217
-249.748
-247.382
-245.122
-242.935
-240.882
-239.148
-237.853
-237.006
-236.405
-235.605
-234.382
-232.843
-231.066
-228.986
-226.581
-223.897
-221.603
-221.21
-223.775
-229.492
-237.936
-248.159
-259.393
-271.122
-281.892
-288.873
-289.432
-281.918
-266.259
-243.69
-214.699
-179.374
-139.105
-98.445
-64.276
-42.691
-36.232
-40.566
-49.66
-60.445
-74.722
-105.785
-168.644
-274.245
-426.5
-606.907
-787.55
-937.692
-1026.605
-1047.993
-1007.934
-918.579
-803.512
-676.234
-547.782
-434.278
-342.365
-276.786
-237.927
-213.757
-194.247
-174.585
-153.765
-138.329
-133.812
-140.023
-153.45
-168.129
-179.492
-186.199
-188.674
-187.772
-183.602
-176.253
-166.368
-155.053
-143.887
-133.753
-124.663
-116.512
-109.023
-101.877
-94.807
-87.201
-78.298
-67.787
-55.685
-42.257
-28.031
-13.367
1.516
16.373
31.05
45.464
59.555
73.386
87.059
100.606
114.005
127.148
139.884
152.149
163.924
175.243
186.201
196.855
207.242
217.419
227.403
237.187
246.752
256.029
264.925
273.376
281.334
288.773
295.693
302.075
307.89
313.114
317.708
321.642
324.89
327.412
329.174
330.154
330.335
329.718
328.316
326.139
323.198
319.511
315.094
309.966
304.151
297.667
290.537
282.787
274.447
265.551
256.141
246.258
235.947
225.255
214.232
202.926
191.386
179.66
167.794
155.835
143.827
131.816
119.848
107.969
96.224
84.656
73.309
62.223
51.433
40.973
30.869
21.146
11.827
2.933
-5.519
-13.51
-21.023
-28.038
-34.532
-40.486
-45.888
-50.727
-55.002
-58.712
-61.862
-64.462
-66.532
-68.09
-69.159
-69.758
-69.894
-69.579
-68.83
-67.664
-66.106
-64.182
-61.909
-59.308
-56.419
-53.265
-49.872
-46.248
-42.359
-38.181
-33.709
-28.939
-23.891
-18.595
-13.086
-7.443
-1.777
3.79
9.127
14.15
18.809
23.038
26.797
30.042
32.69
34.725
36.086
36.644
36.472
35.655
34.327
32.806
31.242
29.708
28.676
28.66
29.592
31.363
33.444
34.873
35.707
36.243
35.953
34.291
31.392
27.72
25.069
26.069
31.392
41.246
56.777
78.853
107.783
141.067
172.169
194.395
204.313
204.561
200.307
192.315
175.732
136.111
58.488
-64.295
-232.184
-426.18
-619.448
-784.596
-892.503
-934.28
-912.956
-837.193
-727.854
-599.878
-466.137
-343.142
-238.977
-156.45
-92.48
-35.398
23.694
86.826
150.476
206.253
248.757
277.408
294.423
304.768
311.847
317.321
322.998
329.366
336.419
344.704
354.337
365.025
376.811
389.276
401.299
412.402
422.575
431.867
440.832
450.118
460.024
471.012
483.701
498.332
515.01
533.716
554.062
575.624
598.001
620.692
643.354
665.819
687.926
709.578
730.69
751.1
770.726
789.545
807.485
824.492
840.51
855.477
869.427
882.463
894.693
906.239
917.162
927.459
937.129
946.154
954.5
962.137
969
975.004
980.097
984.24
987.4
989.555
990.657
990.644
989.461
987.056
983.385
978.421
972.138
964.52
955.569
945.295
933.721
920.882
906.807
891.528
875.076
857.487
838.8
819.062
798.323
776.636
754.065
730.676
706.544
681.746
656.362
630.47
604.153
577.494
550.572
523.471
496.274
469.066
441.934
414.963
388.235
361.83
335.825
310.293
285.301
260.909
237.172
214.14
191.861
170.378
149.732
129.96
111.096
93.174
76.223
60.264
45.311
31.369
18.438
6.508
-4.436
-14.418
-23.473
-31.634
-38.934
-45.408
-51.087
-56.011
-60.225
-63.775
-66.709
-69.077
-70.927
-72.318
-73.319
-73.985
-74.354
-74.439
-74.226
-73.711
-72.917
-71.867
-70.585
-69.127
-67.561
-66.012
-64.667
-63.676
-63.15
-63.169
-63.745
-64.892
-66.658
-69.093
-72.291
-76.361
-81.358
-87.346
-94.405
-102.481
-111.455
-121.096
-130.928
-140.499
-149.495
-157.725
-165.279
-172.513
-179.74
-187.16
-195.018
-203.595
-213.04
-223.133
-232.918
-240.809
-245.28
-245.565
-241.231
-231.467
-215.69
-193.899
-169.06
-147.493
-135.066
-136.312
-149.049
-165.793
-183.016
-199.478
-225.947
-284.036
-387.542
-545.523
-748.06
-959.997
-1146.332
-1271.639
-1312.199
-1273.008
-1166.794
-1012.464
-836.862
-656.622
-489.629
-357.101
-267.348
-225.041
-224.869
-248.863
-281.776
-308.088
-318.426
-311.556
-290.632
-265.51
-243.66
-230.132
-224.909
-221.308
-215.695
-206.324
-194.258
-183.74
-176.281
-171.706
-169.474
-168.243
-167.331
-166.444
-164.722
-161.432
-156.243
-149.015
-139.901
-129.018
-116.36
-102.055
-86.391
-69.815
-52.773
-35.514
-18.142
-0.715
16.699
33.983
50.99
67.615
83.802
99.491
114.615
129.09
142.825
155.795
168.037
179.646
190.738
201.372
211.555
221.273
230.499
239.207
247.367
254.918
261.78
267.89
273.206
277.701
281.361
284.158
286.05
286.992
286.938
285.856
283.723
280.52
276.238
270.879
264.458
257.004
248.562
239.177
228.892
217.755
205.813
193.12
179.734
165.711
151.112
136
120.445
104.521
88.307
71.88
55.319
38.703
22.112
5.623
-10.691
-26.76
-42.518
-57.9
-72.847
-87.3
-101.203
-114.506
-127.158
-139.114
-150.335
-160.788
-170.448
-179.297
-187.326
-194.532
-200.919
-206.493
-211.265
-215.249
-218.463
-220.925
-222.654
-223.669
-223.994
-223.662
-222.708
-221.172
-219.096
-216.525
-213.508
-210.104
-206.369
-202.352
-198.099
-193.654
-189.057
-184.35
-179.573
-174.759
-169.943
-165.163
-160.451
-155.841
-151.376
-147.074
-142.94
-138.96
-135.085
-131.279
-127.518
-123.769
-120.029
-116.318
-112.678
-109.209
-106.034
-103.237
-100.89
-99.044
-97.677
-96.758
-96.265
-96.16
-96.506
-97.416
-98.952
-101.184
-104.125
-107.703
-111.802
-116.225
-120.6
-124.468
-127.465
-129.38
-130.352
-130.801
-131.105
-131.504
-132.19
-133.514
-135.672
-138.401
-140.809
-141.366
-138.822
-132.427
-121.414
-104.838
-81.916
-54.683
-28.076
-7.09
3.647
6.895
11.133
18.745
29.611
31.622
0.27
-78.02
-211.544
-393.142
-589.727
-770.04
-902.026
-959.126
-942.333
-859.17
-723.526
-563.043
-396.785
-246.225
-136.703
-76.175
-66.877
-100.045
-153.325
-210.149
-256.22
-284.151
-295.314
-293.555
-287.333
-282.553
-282.791
-287.781
-291.594
-291.113
-284.926
-273.987
-262.496
-252.406
-244.01
-237.231
-231.033
-224.83
-218.573
-211.827
-204.25
-195.797
-186.453
-176.347
-165.642
-154.423
-142.803
-130.951
-118.98
-106.902
-94.682
-82.244
-69.544
-56.581
-43.347
-29.821
-15.999
-1.896
12.445
26.959
41.588
56.287
71.011
85.712
100.333
114.811
129.082
143.088
156.766
170.046
182.857
195.125
206.779
217.757
228.001
237.454
246.066
253.791
260.585
266.414
271.244
275.039
277.768
279.405
279.923
279.308
277.549
274.641
270.589
265.407
259.116
251.745
243.331
233.913
223.535
212.246
200.098
187.149
173.455
159.077
144.079
128.529
112.497
96.057
79.279
62.238
45.005
27.651
10.248
-7.139
-24.443
-41.605
-58.563
-75.258
-91.631
-107.624
-123.183
-138.259
-152.805
-166.781
-180.152
-192.89
-204.976
-216.396
-227.141
-237.203
-246.578
-255.266
-263.266
-270.581
-277.212
-283.157
-288.423
-293.023
-296.974
-300.296
-303.014
-305.152
-306.74
-307.818
-308.421
-308.581
-308.325
-307.676
-306.661
-305.311
-303.659
-301.736
-299.569
-297.181
-294.602
-291.869
-289.012
-286.046
-282.958
-279.71
-276.269
-272.626
-268.78
-264.729
-260.487
-256.083
-251.595
-247.164
-242.929
-239.004
-235.46
-232.327
-229.626
-227.377
-225.612
-224.387
-223.756
-223.785
-224.527
-226.035
-228.323
-231.325
-234.863
-238.633
-242.212
-245.088
-246.936
-247.663
-247.341
-246.355
-245.09
-243.764
-242.835
-242.99
-244.455
-246.804
-249.179
-250.018
-247.648
-240.98
-228.64
-208.721
-182.33
-153.772
-127.062
-107.666
-94.801
-80.125
-61.594
-40.243
-28.743
-53.86
-132.883
-276.508
-477.821
-702.843
-916.706
-1081.509
-1167.389
-1174.303
-1109.859
-990.998
-847.294
-694.583
-549.992
-435.123
-353.324
-306.431
-289.542
-282.138
-274.331
-263.287
-249.226
-241.675
-244.393
-253.846
-265.492
-273.395
-274.952
-271.086
-263.171
-252.744
-240.692
-227.878
-215.685
-204.938
-195.966
-188.705
-182.609
-177.226
-172.277
-167.229
-161.426
-154.406
-145.776
-135.376
-123.375
-109.948
-95.35
-79.982
-64.166
-48.115
-32.003
-15.886
0.239
16.356
32.501
48.73
65.042
81.384
97.63
113.636
129.331
144.688
159.735
174.546
189.163
203.607
217.923
232.118
246.175
260.064
273.704
286.998
299.873
312.274
324.166
335.529
346.327
356.518
366.059
374.904
383.012
390.341
396.836
402.45
407.147
410.899
413.696
415.538
416.426
416.361
415.357
413.428
410.592
406.873
402.293
396.875
390.649
383.651
375.919
367.496
358.428
348.762
338.551
327.849
316.715
305.205
293.376
281.286
268.988
256.54
243.996
231.405
218.82
206.288
193.861
181.59
169.525
157.712
146.193
135.01
124.196
113.783
103.794
94.247
85.157
76.535
68.394
60.743
53.59
46.944
40.812
35.203
30.124
25.579
21.564
18.07
15.086
12.598
10.593
9.046
7.931
7.22
6.89
6.923
7.305
8.016
9.029
10.318
11.86
13.639
15.644
17.855
20.24
22.78
25.477
28.357
31.479
34.883
38.583
42.588
46.9
51.512
56.39
61.449
66.537
71.493
76.188
80.542
84.535
88.145
91.334
94.035
96.13
97.528
98.184
98.055
97.069
95.207
92.522
89.172
85.613
82.444
80.091
78.786
78.519
78.974
79.831
80.919
81.781
81.657
80.141
77.312
73.934
71.615
72.196
77.208
88.322
107.679
134.646
165.727
197.645
225.162
248.365
274.29
302.082
327.824
340.208
314.317
237.974
107.92
-73.824
-284.027
-498.589
-694.673
-841.788
-920.968
-926.936
-860.081
-734.748
-576.739
-405.58
-244.405
-118.373
-33.416
9.383
18.978
19.828
23.78
34.152
49.075
56.204
50.67
35.905
16.675
0.37
-9.419
-13.597
-13.156
-9.177
-2.382
6.878
17.506
27.967
37.428
45.809
53.298
60.261
67.04
73.907
81.457
90.535
101.635
114.907
130.233
147.238
165.526
184.713
204.455
224.46
244.54
264.608
284.648
304.697
324.786
344.935
365.079
385.058
404.724
423.936
442.606
460.715
478.278
495.349
511.968
528.165
543.945
559.281
574.124
588.4
602.015
614.86
626.854
637.951
648.112
657.312
665.518
672.688
678.779
683.753
687.566
690.174
691.538
691.627
690.422
687.921
684.134
679.083
672.795
665.303
656.642
646.854
635.983
624.078
611.19
597.369
582.673
567.164
550.907
533.973
516.434
498.363
479.838
460.936
441.735
422.314
402.745
383.104
363.46
343.88
324.429
305.169
286.158
267.457
249.12
231.203
213.758
196.833
180.469
164.705
149.57
135.088
121.277
108.15
95.714
83.973
72.929
62.581
52.929
43.973
35.713
28.148
21.272
15.074
9.539
4.649
0.384
-3.285
-6.398
-8.995
-11.113
-12.781
-14.018
-14.849
-15.302
-15.412
-15.22
-14.757
-14.055
-13.151
-12.086
-10.903
-9.652
-8.344
-6.961
-5.472
-3.823
-1.99
0.007
2.181
4.538
7.078
9.812
12.649
15.435
18.062
20.407
22.426
24.204
25.703
26.787
27.427
27.543
27.287
27.13
27.175
27.222
27.125
26.652
25.727
24.535
22.539
18.557
11.939
2.424
-9.648
-23.186
-37.384
-51.66
-64.63
-74.311
-78.889
-76.809
-67.732
-52.673
-32.96
-9.823
15.549
41.696
66.743
86.891
97.024
93.49
74.216
43.833
13.038
-10.644
-22.904
-33.939
-68.327
-144.842
-276.78
-455.787
-648.291
-821.471
-939.841
-980.882
-944.831
-835.906
-676.235
-496.82
-325.06
-193.655
-115.511
-84.369
-86.251
-94.297
-92.994
-82.103
-66.429
-57.916
-62.242
-75.718
-92.592
-106.299
-113.735
-115.35
-112.276
-105.805
-96.605
-85.642
-74.587
-64.497
-55.873
-48.716
-42.549
-37.052
-32.005
-26.893
-20.959
-13.577
-4.402
6.551
18.972
32.503
46.765
61.428
76.226
90.944
105.47
119.754
133.802
147.671
161.412
175.03
188.451
201.526
214.106
226.114
237.52
248.344
258.655
268.482
277.838
286.758
295.247
303.283
310.83
317.809
324.12
329.696
334.495
338.493
341.684
344.047
345.553
346.18
345.9
344.695
342.548
339.433
335.33
330.237
324.158
317.117
309.148
300.285
290.565
280.034
268.741
256.738
244.084
230.836
217.056
202.807
188.162
173.191
157.973
142.583
127.099
111.596
96.152
80.841
65.738
50.916
36.445
22.391
8.818
-4.216
-16.655
-28.452
-39.562
-49.948
-59.577
-68.421
-76.458
-83.669
-90.04
-95.564
-100.239
-104.072
-107.072
-109.261
-110.664
-111.314
-111.247
-110.508
-109.138
-107.183
-104.693
-101.715
-98.294
-94.477
-90.307
-85.831
-81.105
-76.181
-71.115
-65.964
-60.785
-55.636
-50.578
-45.661
-40.928
-36.416
-32.157
-28.176
-24.505
-21.171
-18.194
-15.601
-13.411
-11.641
-10.317
-9.443
-9.004
-8.972
-9.288
-9.892
-10.754
-11.839
-13.108
-14.569
-16.239
-18.171
-20.488
-23.272
-26.563
-30.395
-34.744
-39.574
-44.871
-50.594
-56.719
-63.278
-70.287
-77.797
-85.878
-94.487
-103.517
-112.766
-121.864
-130.472
-138.23
-144.689
-149.662
-153.171
-155.388
-156.788
-157.77
-158.561
-159.717
-161.835
-164.799
-168.298
-171.619
-173.258
-172.313
-167.925
-158.092
-143.028
-126.206
-110.545
-100.233
-94.537
-83.962
-65.054
-39.359
-18.157
-28.157
-86.143
-198.963
-363.088
-551.718
-738.252
-897.239
-1001.174
-1042.233
-1022.202
-949.059
-841.694
-713.502
-573.697
-434.807
-309.959
-211.852
-149.323
-119.833
-109.146
-103.026
-93.507
-80.572
-72.242
-74.166
-85.471
-101.788
-116.577
-126.193
-130.766
-131.245
-128.702
-123.694
-116.601
-108.49
-100.807
-94.362
-89.22
-85.068
-81.405
-77.789
-73.769
-68.744
-62.051
-53.313
-42.525
-29.904
-15.848
-0.817
14.771
30.596
46.413
62.088
77.589
92.874
107.924
122.723
137.189
151.222
164.725
177.579
189.693
201.043
211.634
221.532
230.853
239.655
247.952
255.739
262.97
269.593
275.561
280.8
285.228
288.792
291.454
293.191
293.996
293.849
292.717
290.572
287.373
283.091
277.71
271.218
263.614
254.909
245.126
234.298
222.48
209.724
196.081
181.609
166.366
150.412
133.82
116.66
99.001
80.921
62.5
43.822
24.974
6.043
-12.887
-31.732
-50.407
-68.831
-86.923
-104.607
-121.811
-138.466
-154.508
-169.878
-184.521
-198.389
-211.44
-223.637
-234.949
-245.35
-254.818
-263.338
-270.902
-277.509
-283.164
-287.878
-291.669
-294.563
-296.593
-297.795
-298.206
-297.867
-296.823
-295.118
-292.798
-289.904
-286.478
-282.565
-278.214
-273.477
-268.407
-263.059
-257.485
-251.742
-245.892
-239.99
-234.084
-228.216
-222.417
-216.721
-211.163
-205.776
-200.587
-195.619
-190.888
-186.415
-182.226
-178.336
-174.745
-171.423
-168.312
-165.362
-162.548
-159.845
-157.232
-154.695
-152.241
-149.925
-147.862
-146.171
-144.94
-144.215
-144
-144.295
-145.101
-146.435
-148.332
-150.816
-153.92
-157.679
-162.133
-167.3
-173.125
-179.428
-185.888
-192.078
-197.502
-201.822
-204.932
-206.87
-207.938
-208.5
-208.82
-209.397
-210.977
-213.92
-217.887
-222.095
-225.142
-225.355
-221.537
-212.338
-195.736
-172.531
-146.807
-122.164
-103.335
-89.281
-72.004
-50.31
-27.283
-16.935
-44.991
-126.324
-267.459
-458.739
-668.176
-864.383
-1015.551
-1099.655
-1118.678
-1082.843
-1008.125
-909.96
-794.053
-664.893
-532.983
-414.936
-325.325
-272.218
-249.989
-239.993
-228.962
-211.147
-188.755
-172.54
-167.321
-171.172
-180.004
-187.222
-189.733
-188.214
-183.304
-175.754
-166.045
-154.255
-141.237
-128.423
-116.539
-105.659
-95.672
-86.268
-77.186
-68.27
-59.021
-48.645
-36.677
-22.959
-7.578
9.11
26.73
44.929
63.383
81.817
100.05
117.993
135.62
152.968
170.074
186.968
203.602
219.836
235.54
250.594
264.936
278.569
291.53
303.889
315.703
327.015
337.848
348.193
358.015
367.258
375.846
383.684
390.714
396.905
402.232
406.687
410.248
412.885
414.571
415.274
414.963
413.604
411.167
407.631
402.99
397.249
390.426
382.55
373.65
363.762
352.925
341.179
328.568
315.14
300.946
286.041
270.484
254.341
237.681
220.577
203.105
185.339
167.356
149.231
131.037
112.847
94.734
76.767
59.014
41.543
24.415
7.691
-8.57
-24.317
-39.5
-54.075
-68.004
-81.252
-93.788
-105.587
-116.627
-126.89
-136.364
-145.041
-152.919
-160
-166.292
-171.811
-176.575
-180.608
-183.933
-186.578
-188.577
-189.959
-190.751
-190.978
-190.659
-189.82
-188.493
-186.712
-184.506
-181.91
-178.962
-175.706
-172.198
-168.481
-164.588
-160.544
-156.361
-152.061
-147.676
-143.233
-138.764
-134.297
-129.855
-125.464
-121.168
-116.988
-112.923
-108.935
-104.948
-100.901
-96.761
-92.509
-88.146
-83.681
-79.124
-74.513
-69.916
-65.401
-61.036
-56.89
-52.994
-49.344
-45.902
-42.709
-39.936
-37.697
-35.999
-34.637
-33.186
-31.443
-29.53
-27.538
-25.374
-22.967
-20.326
-18.082
-17.679
-20.061
-25.328
-33.065
-42.503
-53.091
-64.427
-75.04
-82.151
-83.507
-77.606
-63.941
-42.974
-14.125
21.563
59.629
95.191
122.997
143.388
164.333
188.517
213.918
229.694
212.229
148.591
34.168
-128.356
-315.559
-504.115
-672.14
-793.509
-856.73
-861.536
-810.151
-714.747
-593.238
-457.845
-325.821
-217.53
-139.104
-93.117
-74.104
-63.199
-50.627
-33.481
-13.123
0.379
2.319
-5.309
-18.199
-29.577
-36.127
-38.127
-36.405
-32.091
-25.51
-16.615
-6.393
3.724
12.858
20.667
27.382
33.466
39.142
44.608
50.313
56.923
65.024
74.921
86.571
99.703
113.972
129.009
144.517
160.251
176.012
191.702
207.269
222.706
238.065
253.385
268.661
283.815
298.688
313.123
327.042
340.415
353.265
365.661
377.632
389.19
400.37
411.173
421.573
431.533
440.967
449.771
457.873
465.225
471.799
477.581
482.543
486.651
489.871
492.17
493.52
493.892
493.25
491.566
488.825
485.023
480.172
474.295
467.416
459.561
450.766
441.068
430.507
419.131
406.985
394.118
380.585
366.446
351.763
336.604
321.037
305.131
288.957
272.585
256.085
239.528
222.982
206.515
190.193
174.08
158.234
142.712
127.569
112.852
98.609
84.881
71.705
59.117
47.149
35.828
25.18
15.221
5.965
-2.582
-10.418
-17.547
-23.979
-29.727
-34.809
-39.246
-43.056
-46.263
-48.889
-50.958
-52.49
-53.507
-54.031
-54.092
-53.72
-52.947
-51.806
-50.33
-48.558
-46.532
-44.293
-41.874
-39.303
-36.601
-33.795
-30.913
-27.982
-25.022
-22.049
-19.073
-16.112
-13.196
-10.338
-7.534
-4.751
-1.926
0.99
4.02
7.183
10.492
13.95
17.532
21.161
24.695
27.989
30.933
33.47
35.601
37.318
38.596
39.378
39.568
39.095
37.926
36.023
33.335
29.883
25.768
21.197
16.622
12.576
9.445
7.433
6.453
6.114
6.021
5.961
5.63
4.491
2.192
-1.182
-4.723
-6.616
-5.083
0.877
12.02
29.429
53.819
84.933
119.471
151.144
174.062
184.451
183.618
174.676
158.086
131.248
83.251
2.571
-118.381
-282.514
-473.545
-665.957
-828.884
-928.865
-956.8
-917.892
-828.286
-714.77
-587.83
-453.457
-320.269
-195.874
-97.176
-37.39
-15.77
-20.375
-34.806
-47.429
-56.081
-67.057
-84.69
-107.691
-131.696
-150.761
-162.206
-166.901
-166.402
-162.226
-155.503
-147.394
-139.473
-132.867
-127.869
-124.263
-121.512
-119.133
-116.765
-113.755
-109.246
-102.682
-93.857
-82.891
-70.167
-56.084
-41.026
-25.331
-9.272
6.975
23.337
39.818
56.472
73.334
90.435
107.712
125.014
142.201
159.141
175.75
192.008
207.928
223.561
238.941
254.093
269.013
283.668
297.998
311.924
325.348
338.154
350.261
361.616
372.175
381.905
390.767
398.711
405.69
411.654
416.555
420.342
422.972
424.41
424.636
423.644
421.443
418.054
413.501
407.814
401.028
393.18
384.312
374.473
363.714
352.088
339.657
326.488
312.658
298.244
283.329
267.996
252.328
236.41
220.326
204.158
187.985
171.884
155.93
140.197
124.757
109.68
95.031
80.871
67.258
54.245
41.877
30.195
19.231
9.011
-0.444
-9.119
-17.002
-24.084
-30.363
-35.844
-40.533
-44.446
-47.603
-50.03
-51.761
-52.833
-53.287
-53.165
-52.512
-51.368
-49.77
-47.754
-45.35
-42.596
-39.531
-36.195
-32.629
-28.877
-24.986
-21.012
-17.012
-13.035
-9.115
-5.278
-1.545
2.054
5.487
8.721
11.733
14.506
17.027
19.271
21.209
22.823
24.132
25.195
26.091
26.891
27.627
28.303
28.946
29.586
30.248
30.94
31.564
31.982
32.089
31.799
31.117
30.112
28.75
26.889
24.46
21.452
18.082
14.817
11.802
8.894
5.977
2.939
-0.149
-3.01
-6.012
-10.236
-16.37
-24.72
-35.06
-46.374
-57.956
-69.668
-80.548
-88.687
-92.152
-88.811
-77.687
-59.762
-35.583
-4.886
31.357
71.375
110.797
142.004
161.401
168.599
165.183
156.023
137.948
103.157
44.91
-46.155
-168.838
-314.919
-475.7
-633.589
-772.903
-878.534
-932.764
-928.485
-864.606
-749.615
-605.093
-452.405
-314.37
-207.522
-133.698
-88.618
-59.933
-35.237
-11.067
11.117
25.039
26.348
16.579
0.776
-14.089
-24.001
-28.289
-27.424
-22.677
-15.005
-4.915
6.326
16.973
26.085
33.343
38.814
42.989
46.355
49.303
52.55
57.058
63.356
71.666
82.005
94.05
107.501
122.061
137.238
152.617
167.967
183.128
198.073
212.853
227.428
241.769
255.866
269.602
282.875
295.599
307.656
319.008
329.671
339.689
349.174
358.225
366.882
375.167
383.067
390.539
397.548
404.036
409.922
415.158
419.714
423.566
426.709
429.131
430.798
431.684
431.753
430.963
429.286
426.696
423.173
418.711
413.314
406.997
399.789
391.722
382.825
373.132
362.675
351.488
339.611
327.083
313.946
300.244
286.031
271.363
256.301
240.909
225.247
209.379
193.368
177.275
161.158
145.074
129.075
113.213
97.539
82.103
66.953
52.134
37.689
23.657
10.075
-3.025
-15.618
-27.683
-39.206
-50.176
-60.585
-70.425
-79.694
-88.389
-96.514
-104.074
-111.076
-117.534
-123.468
-128.903
-133.866
-138.386
-142.492
-146.214
-149.579
-152.614
-155.34
-157.773
-159.931
-161.833
-163.502
-164.962
-166.237
-167.352
-168.333
-169.21
-170.013
-170.765
-171.483
-172.176
-172.85
-173.515
-174.179
-174.852
-175.538
-176.234
-176.945
-177.68
-178.442
-179.225
-180.006
-180.724
-181.33
-181.788
-182.065
-182.14
-182.001
-181.64
-181.095
-180.468
-179.869
-179.418
-179.203
-179.246
-179.589
-180.269
-181.305
-182.748
-184.611
-186.883
-189.625
-192.898
-196.713
-201.056
-205.764
-210.538
-215.109
-219.094
-222.011
-223.585
-223.692
-222.481
-220.507
-218.254
-216.026
-214.346
-213.858
-214.799
-216.868
-218.837
-218.639
-214.797
-206.308
-191.837
-170.132
-140.639
-105.908
-72.466
-47.477
-35.141
-32.791
-33.118
-32.329
-36.114
-62.347
-133.567
-266.665
-460.618
-689.417
-914.71
-1092.081
-1189.176
-1204.758
-1152.325
-1058.028
-948.215
-827.446
-697.063
-561.774
-430.942
-325.718
-261.944
-239.039
-242.759
-254.45
-262.116
-264.314
-268.323
-279.028
-294.334
-309.708
-319.684
-321.717
-317.093
-307.761
-295.35
-281.375
-267.574
-255.142
-244.69
-236.368
-229.531
-223.497
-217.907
-212.179
-205.542
-197.488
-187.575
-175.598
-161.806
-146.463
-129.863
-112.467
-94.629
-76.568
-58.487
-40.456
-22.481
-4.596
13.222
31.015
48.764
66.396
83.764
100.701
117.119
132.978
148.289
163.116
177.481
191.39
204.871
217.92
230.507
242.59
254.079
264.865
274.872
284.044
292.346
299.759
306.252
311.789
316.338
319.861
322.332
323.72
323.989
323.111
321.071
317.866
313.511
308.034
301.462
293.829
285.175
275.544
264.984
253.547
241.283
228.247
214.501
200.111
185.149
169.693
153.824
137.624
121.18
104.578
87.903
71.239
54.667
38.266
22.111
6.274
-9.177
-24.176
-38.661
-52.572
-65.852
-78.452
-90.325
-101.432
-111.74
-121.22
-129.854
-137.63
-144.541
-150.585
-155.764
-160.082
-163.547
-166.173
-167.98
-168.993
-169.239
-168.756
-167.585
-165.775
-163.378
-160.446
-157.032
-153.186
-148.955
-144.385
-139.519
-134.394
-129.051
-123.533
-117.883
-112.144
-106.363
-100.587
-94.866
-89.248
-83.774
-78.47
-73.365
-68.484
-63.859
-59.518
-55.483
-51.766
-48.375
-45.321
-42.615
-40.272
-38.289
-36.63
-35.239
-34.037
-32.967
-32.005
-31.115
-30.238
-29.301
-28.254
-27.133
-26.087
-25.286
-24.833
-24.769
-25.042
-25.66
-26.753
-28.376
-30.448
-32.709
-34.833
-36.739
-38.736
-41.16
-44.009
-47.252
-50.855
-55.048
-60.417
-67.138
-74.745
-82.585
-90.291
-97.474
-103.757
-108.555
-110.742
-109.54
-104.549
-95.493
-82.167
-64.385
-42.054
-15.112
16.309
50.077
81.608
106.603
120.711
125.565
129.344
135.341
143.838
143.475
110.186
27.917
-113.683
-307.371
-520.975
-720.838
-870.204
-944.153
-947.331
-892.865
-802.842
-698.667
-582.161
-454.84
-322.657
-196.498
-97.562
-40.595
-24.718
-35.516
-54.241
-68.453
-76.311
-85.194
-100.118
-119.964
-140.266
-154.743
-160.736
-159.29
-151.985
-140.589
-126.538
-111.07
-95.872
-82.164
-70.207
-59.782
-50.381
-41.573
-33.131
-24.601
-15.323
-4.849
7.036
20.215
34.25
48.829
63.762
78.854
94.004
109.143
124.174
139.123
154.089
169.134
184.328
199.679
215.092
230.472
245.715
260.758
275.623
290.31
304.793
319.045
333.02
346.683
360.027
372.999
385.498
397.434
408.713
419.259
429.038
438.008
446.122
453.336
459.6
464.868
469.111
472.297
474.392
475.36
475.167
473.793
471.237
467.503
462.601
456.542
449.344
441.033
431.647
421.228
409.813
397.451
384.19
370.087
355.208
339.618
323.391
306.6
289.326
271.648
253.652
235.418
217.029
198.564
180.102
161.718
143.486
125.476
107.758
90.397
73.458
57.002
41.084
25.757
11.063
-2.956
-16.267
-28.842
-40.661
-51.709
-61.974
-71.45
-80.132
-88.019
-95.118
-101.439
-106.999
-111.819
-115.927
-119.357
-122.145
-124.33
-125.954
-127.058
-127.683
-127.866
-127.643
-127.046
-126.11
-124.869
-123.36
-121.618
-119.681
-117.587
-115.374
-113.085
-110.755
-108.418
-106.102
-103.828
-101.611
-99.47
-97.419
-95.47
-93.633
-91.908
-90.296
-88.805
-87.436
-86.178
-85.001
-83.841
-82.636
-81.34
-79.912
-78.319
-76.548
-74.588
-72.463
-70.262
-68.082
-66.033
-64.214
-62.666
-61.412
-60.466
-59.862
-59.662
-59.924
-60.694
-61.985
-63.804
-66.118
-68.875
-71.962
-75.132
-78.021
-80.114
-80.941
-80.266
-78.151
-74.908
-70.793
-65.944
-60.681
-55.616
-51.332
-47.958
-44.645
-39.849
-32.356
-21.195
-5.153
17.097
46.742
82.076
117.5
147.474
168.795
185.07
203.544
225.069
241.598
232.85
177.434
64.957
-101.614
-300.698
-505.974
-692.285
-837.664
-933.407
-973.812
-959.956
-898.764
-793.995
-658.425
-505.943
-353.035
-223.45
-127.971
-69.65
-42.692
-28.686
-17.738
-7.157
1.536
-0.241
-14.936
-38.415
-65.342
-88.738
-105.086
-114.658
-118.132
-116.519
-110.731
-101.686
-90.951
-80.311
-70.786
-62.561
-55.402
-48.826
-42.31
-35.293
-27.08
-16.947
-4.512
10.16
26.776
44.851
63.84
83.338
103.041
122.706
142.219
161.548
180.662
199.568
218.259
236.645
254.617
272.054
288.821
304.85
320.124
334.661
348.546
361.848
374.586
386.758
398.331
409.247
419.452
428.875
437.423
445.032
451.661
457.282
461.892
465.479
468.019
469.488
469.861
469.114
467.234
464.217
460.06
454.777
448.39
440.936
432.465
423.033
412.691
401.496
389.506
376.779
363.382
349.379
334.833
319.813
304.389
288.637
272.633
256.457
240.188
223.903
207.68
191.594
175.715
160.112
144.847
129.977
115.556
101.633
88.251
75.453
63.274
51.748
40.902
30.759
21.335
12.64
4.676
-2.561
-9.079
-14.894
-20.024
-24.49
-28.317
-31.528
-34.149
-36.209
-37.74
-38.775
-39.353
-39.515
-39.303
-38.764
-37.943
-36.883
-35.627
-34.216
-32.682
-31.053
-29.35
-27.588
-25.787
-23.97
-22.153
-20.355
-18.595
-16.893
-15.273
-13.761
-12.369
-11.096
-9.93
-8.862
-7.884
-7
-6.217
-5.53
-4.938
-4.439
-4.035
-3.737
-3.538
-3.403
-3.27
-3.056
-2.69
-2.143
-1.404
-0.439
0.764
2.233
3.979
5.912
7.939
9.984
11.958
13.848
15.705
17.49
19.075
20.433
21.536
22.549
23.891
25.65
27.657
29.767
31.821
33.707
35.451
36.66
36.276
33.76
29.029
22.172
13.951
5.16
-3.887
-12.487
-18.975
-21.997
-20.261
-12.486
0.968
19.549
43.833
74.028
109.214
146.137
178.573
200.557
209.935
211.186
210.727
211.038
208.351
185.823
125.028
14.379
-149.988
-347.69
-547.714
-717.269
-822.398
-854.019
-819.195
-732.592
-618.716
-491.991
-359.614
-231.366
-115.841
-23.097
36.628
62.945
63.931
51.624
40.351
38.065
46.862
62.764
76.573
83.037
79.005
66.363
52.764
42.667
38.964
41.968
48.065
54.953
61.322
66.404
70.738
74.592
77.919
80.966
84.101
87.934
93.174
100.217
109.202
120.023
132.389
145.954
160.267
174.941
189.717
204.42
218.973
233.374
247.595
261.623
275.449
288.965
302.047
314.592
326.48
337.668
348.171
358.035
367.366
376.258
384.752
392.863
400.582
407.861
414.66
420.918
426.55
431.508
435.764
439.298
442.109
444.186
445.504
446.038
445.759
444.636
442.645
439.772
436.005
431.348
425.816
419.433
412.238
404.273
395.577
386.193
376.162
365.527
354.336
342.635
330.472
317.897
304.965
291.734
278.264
264.619
250.86
237.052
223.257
209.536
195.951
182.556
169.405
156.549
144.035
131.904
120.197
108.949
98.192
87.956
78.266
69.144
60.605
52.661
45.316
38.571
32.421
26.858
21.868
17.434
13.537
10.158
7.276
4.865
2.902
1.357
0.199
-0.605
-1.091
-1.3
-1.273
-1.053
-0.679
-0.19
0.375
0.982
1.598
2.198
2.763
3.275
3.712
4.056
4.288
4.39
4.351
4.157
3.785
3.22
2.45
1.465
0.273
-1.123
-2.722
-4.518
-6.508
-8.685
-11.031
-13.535
-16.196
-19.002
-21.941
-24.976
-28.032
-31.047
-33.968
-36.743
-39.344
-41.748
-43.942
-45.977
-47.932
-49.899
-51.986
-54.25
-56.74
-59.513
-62.574
-65.949
-69.699
-73.834
-78.467
-83.743
-89.563
-95.82
-102.391
-108.952
-115.392
-121.582
-126.859
-130.764
-133.501
-135.369
-137.204
-139.944
-143.418
-147.57
-153.115
-160.137
-167.835
-174.774
-178.15
-175.605
-166.423
-149.639
-124.509
-91.319
-52.831
-15.158
16.246
37.625
48.434
51.398
43.018
16.005
-36.838
-124.623
-248.592
-403.01
-576.551
-749.575
-898.028
-998.305
-1040.262
-1025.491
-966.685
-883.841
-785.144
-675.824
-563.616
-457.346
-373.871
-325.513
-311.063
-318.485
-331.769
-341.03
-346.115
-353.787
-368.954
-390.35
-412.96
-430.965
-441.693
-445.595
-443.875
-437.868
-428.431
-416.657
-404.326
-392.638
-382.059
-372.626
-363.949
-355.738
-347.896
-340.067
-331.68
-322.416
-312.163
-300.99
-289.208
-277.029
-264.573
-252.014
-239.47
-226.988
-214.59
-202.239
-189.852
-177.392
-164.828
-152.125
-139.296
-126.369
-113.374
-100.362
-87.366
-74.415
-61.546
-48.797
-36.214
-23.849
-11.753
0.02
11.408
22.351
32.782
42.638
51.867
60.422
68.258
75.335
81.616
87.066
91.656
95.362
98.161
100.031
100.953
100.91
99.893
97.898
94.925
90.981
86.079
80.239
73.488
65.859
57.392
48.129
38.12
27.415
16.07
4.145
-8.3
-21.201
-34.491
-48.1
-61.958
-75.993
-90.134
-104.309
-118.444
-132.471
-146.322
-159.93
-173.235
-186.178
-198.702
-210.757
-222.295
-233.273
-243.651
-253.394
-262.47
-270.853
-278.523
-285.464
-291.668
-297.132
-301.858
-305.855
-309.136
-311.719
-313.624
-314.876
-315.5
-315.522
-314.975
-313.892
-312.309
-310.264
-307.8
-304.961
-301.794
-298.344
-294.656
-290.772
-286.736
-282.586
-278.353
-274.062
-269.729
-265.375
-261.021
-256.69
-252.396
-248.158
-243.992
-239.923
-235.982
-232.192
-228.563
-225.094
-221.773
-218.596
-215.567
-212.691
-209.97
-207.403
-204.978
-202.696
-200.572
-198.605
-196.772
-195.01
-193.217
-191.309
-189.23
-186.952
-184.462
-181.741
-178.782
-175.607
-172.273
-168.88
-165.524
-162.275
-159.171
-156.225
-153.414
-150.818
-148.636
-146.957
-145.774
-144.872
-143.806
-142.385
-140.683
-138.743
-136.471
-133.721
-130.434
-127.238
-125.554
-126.381
-130.047
-136.223
-144.022
-152.936
-162.573
-171.452
-176.813
-175.888
-166.419
-147.688
-120.803
-86.039
-43.36
5.19
56.378
104.486
140.601
160.318
162.909
148.293
123.396
90.528
43.066
-25.277
-128.929
-277.855
-461.61
-660.052
-840.368
-965.215
-1015.574
-988.139
-892.209
-751.746
-592.111
-433.312
-295.867
-191.915
-121.411
-80.492
-56.964
-38.103
-20.75
-6.555
-1.446
-9.742
-29.325
-53.952
-76.044
-91.522
-99.656
-101.006
-96.894
-88.052
-75.132
-60.004
-44.896
-31.09
-19.126
-8.89
0.112
8.162
15.549
22.92
31.168
40.966
52.554
65.81
80.315
95.623
111.45
127.567
143.752
159.869
175.846
191.665
207.416
223.221
239.122
255.119
271.124
286.962
302.535
317.803
332.768
347.489
361.997
376.279
390.336
404.18
417.795
431.15
444.168
456.731
468.747
480.149
490.894
500.959
510.31
518.897
526.674
533.594
539.613
544.699
548.807
551.887
553.903
554.827
554.651
553.38
551.024
547.588
543.088
537.545
530.988
523.45
514.965
505.568
495.3
484.21
472.351
459.782
446.566
432.768
418.455
403.699
388.57
373.14
357.481
341.663
325.758
309.834
293.962
278.209
262.643
247.326
232.322
217.69
203.485
189.756
176.548
163.899
151.842
140.406
129.613
119.48
110.02
101.242
93.15
85.743
79.016
72.96
67.558
62.79
58.634
55.061
52.043
49.549
47.549
46.01
44.899
44.183
43.824
43.786
44.03
44.512
45.192
46.03
46.986
48.026
49.116
50.231
51.346
52.45
53.527
54.566
55.554
56.483
57.341
58.121
58.816
59.41
59.897
60.272
60.534
60.691
60.753
60.729
60.628
60.459
60.235
59.973
59.691
59.392
59.09
58.805
58.571
58.459
58.533
58.838
59.415
60.29
61.47
62.96
64.73
66.681
68.703
70.679
72.499
74.108
75.464
76.529
77.248
77.545
77.355
76.626
75.33
73.451
71.009
68.058
64.718
61.229
57.914
55.241
53.643
53.352
54.332
56.298
58.973
62.177
65.634
68.816
71.178
72.585
73.769
76.1
80.815
89.028
101.818
120.419
146.324
177.969
209.712
236.125
252.165
260.012
269.678
284.379
300.917
302.799
261.449
159.262
-8.629
-226.494
-459.036
-670.897
-831.354
-924.788
-950.494
-916.216
-833.878
-713.095
-568.462
-414.448
-269.235
-155.196
-77.986
-38.518
-30.382
-35.674
-51.808
-75.601
-99.028
-122.598
-136.307
-134.102
-123.712
-109.464
-99.085
-96.693
-95.76
-92.237
-84.281
-72.193
-60.096
-50.104
-42.068
-35.449
-29.23
-22.989
-16.672
-9.806
-1.954
7.207
17.809
29.665
42.569
56.262
70.493
85.045
99.69
114.285
128.744
143.024
157.135
171.123
185.026
198.841
212.54
226.012
239.129
251.824
264.074
275.912
287.368
298.436
309.115
319.406
329.324
338.865
347.986
356.603
364.634
372.021
378.721
384.714
389.98
394.49
398.211
401.114
403.174
404.373
404.693
404.107
402.589
400.123
396.708
392.358
387.09
380.919
373.867
365.957
357.225
347.708
337.445
326.473
314.833
302.571
289.736
276.383
262.566
248.341
233.769
218.908
203.822
188.571
173.217
157.82
142.441
127.134
111.955
96.953
82.178
67.674
53.483
39.64
26.182
13.139
0.539
-11.595
-23.243
-34.389
-45.022
-55.137
-64.73
-73.804
-82.364
-90.417
-97.974
-105.046
-111.647
-117.792
-123.495
-128.774
-133.648
-138.136
-142.259
-146.041
-149.505
-152.678
-155.582
-158.239
-160.668
-162.888
-164.915
-166.758
-168.419
-169.892
-171.173
-172.258
-173.147
-173.835
-174.316
-174.582
-174.633
-174.476
-174.117
-173.555
-172.778
-171.766
-170.501
-168.976
-167.19
-165.145
-162.836
-160.254
-157.397
-154.278
-150.908
-147.282
-143.365
-139.084
-134.377
-129.209
-123.566
-117.449
-110.878
-103.88
-96.509
-88.863
-81.041
-73.151
-65.294
-57.548
-49.972
-42.595
-35.441
-28.623
-22.331
-16.687
-11.63
-6.909
-2.215
2.587
7.389
12.121
17.09
22.664
28.736
34.551
38.995
41.188
41.238
39.956
37.523
33.699
28.91
24.646
23.315
27.485
38.354
55.504
79.153
110.464
147.905
186.785
222.024
247.153
261.927
274.586
286.76
296.263
294.101
258.191
176.838
47.505
-126.28
-321.132
-511.922
-675.18
-784.5
-828.284
-807.072
-726.209
-601.406
-452.545
-294.482
-147.712
-34.375
37.745
65.333
58.086
41.088
27.488
22.418
25.041
23.369
13.101
-1.527
-16.434
-25.923
-27.401
-22.741
-13.855
-1.899
11.743
25.47
38.294
49.495
58.745
66.546
73.37
79.362
84.936
90.658
96.793
103.513
110.814
118.408
126.095
133.764
141.237
148.35
155.035
161.274
167.111
172.655
177.979
183.125
188.152
193.117
198.061
203.009
207.968
212.932
217.9
222.883
227.888
232.918
237.967
243.02
248.062
253.072
258.027
262.899
267.655
272.258
276.676
280.881
284.846
288.544
291.95
295.037
297.781
300.157
302.14
303.7
304.807
305.431
305.542
305.118
304.135
302.574
300.421
297.664
294.3
290.326
285.744
280.558
274.777
268.411
261.476
253.988
245.968
237.439
228.429
218.968
209.088
198.823
188.209
177.284
166.087
154.659
143.04
131.271
119.393
107.446
95.471
83.509
71.597
59.775
48.078
36.541
25.201
14.088
3.233
-7.34
-17.606
-27.546
-37.141
-46.378
-55.247
-63.74
-71.853
-79.583
-86.925
-93.88
-100.449
-106.637
-112.452
-117.902
-122.999
-127.759
-132.201
-136.345
-140.211
-143.817
-147.181
-150.322
-153.253
-155.988
-158.532
-160.894
-163.083
-165.112
-166.992
-168.736
-170.354
-171.86
-173.274
-174.614
-175.893
-177.12
-178.292
-179.41
-180.479
-181.499
-182.472
-183.393
-184.244
-185.017
-185.719
-186.345
-186.886
-187.306
-187.533
-187.504
-187.189
-186.556
-185.592
-184.29
-182.64
-180.692
-178.567
-176.389
-174.294
-172.372
-170.636
-169.107
-167.817
-166.804
-166.151
-165.923
-166.123
-166.777
-167.901
-169.454
-171.385
-173.514
-175.504
-176.939
-177.279
-176.158
-173.527
-169.567
-164.699
-159.317
-153.559
-147.781
-142.721
-138.66
-135.294
-131.581
-125.561
-115.831
-101.777
-82.378
-56.627
-24.407
11.957
47.143
75.019
91.665
99.208
101.87
100.432
91.482
61.89
-2.839
-109.599
-259.62
-438.237
-620.976
-783.872
-900.44
-955.61
-948.286
-882.484
-773.905
-643.984
-510.817
-394.839
-309.346
-253.598
-221.432
-199.622
-175.94
-148.317
-120.035
-98.605
-89.743
-93.606
-106.685
-122.871
-137.768
-149.195
-156.378
-159.849
-159.662
-155.518
-147.746
-137.131
-124.857
-112.422
-100.612
-89.566
-79.307
-69.679
-60.557
-51.781
-42.909
-33.347
-22.718
-11.001
1.53
14.517
27.706
40.944
54.141
67.186
79.953
92.421
104.654
116.741
128.781
140.796
152.711
164.436
175.873
186.977
197.786
208.322
218.579
228.55
238.205
247.525
256.517
265.146
273.331
280.994
288.057
294.458
300.174
305.184
309.462
312.979
315.698
317.587
318.626
318.796
318.073
316.43
313.84
310.289
305.783
300.331
293.944
286.636
278.422
269.328
259.386
248.632
237.098
224.823
211.849
198.222
183.996
169.227
153.973
138.296
122.26
105.931
89.375
72.66
55.851
39.011
22.203
5.487
-11.079
-27.438
-43.537
-59.324
-74.746
-89.757
-104.31
-118.364
-131.884
-144.834
-157.187
-168.918
-180.008
-190.443
-200.213
-209.309
-217.724
-225.457
-232.509
-238.885
-244.598
-249.66
-254.089
-257.91
-261.149
-263.833
-265.995
-267.668
-268.88
-269.658
-270.025
-269.996
-269.593
-268.837
-267.748
-266.35
-264.666
-262.721
-260.55
-258.195
-255.692
-253.072
-250.359
-247.564
-244.699
-241.79
-238.862
-235.941
-233.046
-230.182
-227.359
-224.603
-221.926
-219.325
-216.76
-214.144
-211.402
-208.491
-205.391
-202.103
-198.627
-194.946
-191.059
-187.012
-182.892
-178.822
-174.929
-171.287
-167.926
-164.85
-162.157
-160.073
-158.705
-158.005
-157.683
-157.226
-156.38
-155.25
-153.934
-152.354
-150.425
-148.05
-145.697
-144.735
-146.093
-149.858
-155.555
-162.182
-168.975
-175.654
-181.16
-182.919
-178.389
-165.82
-144.734
-116.085
-80.47
-37.909
10.793
61.168
105.927
138.677
154.211
154.979
148.775
137.698
122.199
92.694
29.001
-79.911
-241.134
-447.185
-666.944
-868.249
-1016.241
-1084.704
-1074.429
-996.535
-870.549
-721.698
-564.181
-410.891
-279.007
-179.921
-121.692
-104.765
-114.127
-131.778
-147.11
-154.749
-158.131
-164.656
-174.144
-183.727
-190.523
-190.403
-183.233
-171.443
-156.481
-140.24
-124.85
-111.04
-99.137
-89.387
-81.158
-73.762
-66.827
-59.758
-51.901
-42.964
-32.734
-21.022
-7.894
6.563
22.177
38.575
55.432
72.53
89.735
107.002
124.278
141.503
158.661
175.791
192.94
210.139
227.333
244.389
261.167
277.57
293.57
309.198
324.461
339.341
353.818
367.871
381.5
394.692
407.388
419.493
430.911
441.562
451.395
460.383
468.497
475.698
481.947
487.203
491.437
494.627
496.744
497.757
497.632
496.348
493.901
490.304
485.574
479.729
472.79
464.789
455.764
445.761
434.824
422.997
410.329
396.875
382.697
367.859
352.431
336.481
320.084
303.315
286.253
268.975
251.557
234.072
216.592
199.187
181.925
164.868
148.076
131.607
115.516
99.858
84.683
70.036
55.957
42.483
29.645
17.468
5.972
-4.831
-14.933
-24.33
-33.021
-41.005
-48.286
-54.873
-60.777
-66.014
-70.603
-74.566
-77.933
-80.736
-83.01
-84.792
-86.117
-87.017
-87.524
-87.664
-87.457
-86.922
-86.079
-84.948
-83.552
-81.917
-80.065
-78.029
-75.841
-73.537
-71.146
-68.684
-66.163
-63.598
-61.007
-58.412
-55.839
-53.304
-50.817
-48.39
-46.035
-43.771
-41.602
-39.501
-37.412
-35.26
-32.986
-30.573
-28.004
-25.239
-22.234
-18.936
-15.347
-11.582
-7.769
-4.025
-0.444
2.985
6.236
9.163
11.719
13.918
15.851
17.89
20.341
23.087
26.013
29.016
31.658
33.767
35.173
34.978
32.457
27.477
19.918
10.222
-0.263
-10.674
-20.317
-27.601
-31.129
-29.625
-21.579
-6.643
14.445
41.39
74.175
112.377
153.5
192.278
223.488
242.482
251.218
257.535
264.025
271.338
268.955
233.737
150.45
7.511
-190.206
-411.234
-621.619
-783.129
-865.6
-868.691
-801.282
-681.995
-541.317
-396.112
-262.647
-159.455
-87.178
-45.362
-28.892
-20.391
-13.095
-5.873
0.8
-1.359
-14.852
-35.804
-59.728
-79.994
-92.973
-98.841
-98.265
-92.348
-82.098
-68.353
-52.501
-36.312
-20.928
-6.713
6.328
18.463
29.972
41.059
52.12
63.722
76.161
89.461
103.513
118.048
132.861
147.843
162.839
177.718
192.438
206.99
221.416
235.793
250.151
264.506
278.871
293.221
307.518
321.72
335.772
349.625
363.238
376.563
389.552
402.153
414.307
425.955
437.037
447.488
457.245
466.247
474.432
481.753
488.167
493.636
498.127
501.61
504.058
505.453
505.779
505.022
503.173
500.223
496.168
491.013
484.769
477.45
469.08
459.687
449.307
437.983
425.762
412.699
398.848
384.272
369.032
353.196
336.832
320.013
302.809
285.294
267.543
249.631
231.632
213.618
195.663
177.836
160.205
142.836
125.791
109.128
92.903
77.165
61.963
47.338
33.326
19.962
7.273
-4.719
-15.995
-26.542
-36.353
-45.427
-53.767
-61.382
-68.284
-74.492
-80.026
-84.911
-89.172
-92.838
-95.937
-98.499
-100.559
-102.148
-103.302
-104.058
-104.454
-104.527
-104.317
-103.861
-103.195
-102.355
-101.371
-100.269
-99.071
-97.789
-96.43
-95.005
-93.523
-91.992
-90.417
-88.804
-87.163
-85.509
-83.863
-82.237
-80.633
-79.045
-77.463
-75.887
-74.322
-72.775
-71.252
-69.759
-68.296
-66.875
-65.512
-64.206
-62.93
-61.625
-60.196
-58.568
-56.707
-54.592
-52.204
-49.54
-46.591
-43.369
-39.966
-36.465
-32.944
-29.475
-26.071
-22.718
-19.49
-16.556
-14.038
-11.971
-10.18
-8.311
-6.124
-3.53
-0.513
3.009
7.008
11.202
14.85
16.677
15.417
10.134
0.487
-13.333
-30.542
-49.852
-69.342
-86.294
-97.898
-101.189
-93.919
-75.01
-43.946
-2.971
42.672
88.127
128.143
162.073
196.192
230.964
263.127
281.912
264.254
198.096
79.557
-88.261
-283.076
-483.136
-666.487
-804.643
-879.533
-883.793
-819.896
-707.015
-575.224
-449.482
-345.729
-271.833
-219.444
-176.826
-140.441
-106.63
-78.392
-63.74
-63.544
-76.822
-100.987
-129.174
-156.022
-178.245
-193.692
-202.212
-204.44
-200.985
-192.469
-179.877
-164.946
-149.507
-134.767
-121.309
-109.063
-97.663
-86.901
-76.564
-66.205
-55.324
-43.614
-30.981
-17.609
-3.809
10.191
24.211
38.133
51.884
65.423
78.759
91.945
105.053
118.142
131.26
144.407
157.553
170.657
183.671
196.556
209.282
221.816
234.123
246.158
257.866
269.196
280.097
290.511
300.379
309.639
318.229
326.097
333.206
339.52
345.005
349.633
353.376
356.211
358.124
359.101
359.128
358.196
356.297
353.428
349.593
344.802
339.069
332.413
324.863
316.45
307.214
297.2
286.456
275.034
262.991
250.384
237.276
223.729
209.807
195.578
181.11
166.47
151.727
136.95
122.207
107.563
93.083
78.831
64.867
51.247
38.023
25.245
12.96
1.21
-9.97
-20.546
-30.493
-39.786
-48.407
-56.343
-63.586
-70.133
-75.989
-81.159
-85.658
-89.504
-92.72
-95.332
-97.37
-98.865
-99.848
-100.353
-100.414
-100.069
-99.355
-98.309
-96.973
-95.39
-93.604
-91.66
-89.602
-87.469
-85.299
-83.13
-80.991
-78.91
-76.907
-74.995
-73.19
-71.511
-69.972
-68.585
-67.364
-66.316
-65.455
-64.795
-64.344
-64.099
-64.053
-64.196
-64.515
-65.005
-65.656
-66.45
-67.381
-68.434
-69.599
-70.881
-72.265
-73.723
-75.212
-76.658
-77.998
-79.198
-80.221
-81.03
-81.628
-82.034
-82.313
-82.602
-82.996
-83.567
-84.369
-85.406
-86.67
-88.167
-89.898
-91.889
-94.227
-96.974
-100.182
-103.935
-108.228
-112.991
-118.065
-123.097
-127.658
-131.328
-133.833
-135.076
-135.184
-134.494
-133.362
-132.198
-131.572
-132.13
-134.044
-137.052
-140.597
-143.226
-143.432
-139.991
-130.79
-115.563
-97.186
-77.837
-59.964
-42.133
-16.885
16.658
52.288
75.47
63.684
5.506
-98.184
-239.018
-400.633
-567.518
-725.971
-856.035
-935.097
-952.651
-910.293
-822.971
-718.774
-613.543
-508.94
-407.677
-309.353
-220.659
-159.511
-131.125
-128.668
-143.746
-162.205
-177.25
-193.17
-210.839
-229.208
-246.415
-257.564
-260.589
-256.673
-247.329
-234.089
-218.629
-202.742
-187.609
-174.065
-162.47
-152.275
-142.938
-134.224
-125.674
-116.747
-107.201
-96.86
-85.728
-74.138
-62.322
-50.437
-38.7
-27.215
-16
-5.062
5.664
16.268
26.799
37.307
47.85
58.44
69.078
79.755
90.438
101.114
111.773
122.401
132.985
143.495
153.892
164.14
174.201
184.029
193.577
202.793
211.622
220.02
227.949
235.37
242.25
248.555
254.252
259.313
263.716
267.435
270.446
272.722
274.238
274.975
274.917
274.052
272.37
269.87
266.555
262.432
257.518
251.83
245.389
238.221
230.354
221.819
212.65
202.885
192.564
181.732
170.435
158.723
146.648
134.262
121.616
108.763
95.754
82.639
69.467
56.285
43.137
30.067
17.117
4.33
-8.254
-20.597
-32.665
-44.426
-55.852
-66.916
-77.598
-87.881
-97.752
-107.201
-116.223
-124.811
-132.963
-140.678
-147.957
-154.802
-161.218
-167.214
-172.801
-177.993
-182.807
-187.26
-191.37
-195.157
-198.639
-201.835
-204.758
-207.415
-209.807
-211.938
-213.813
-215.439
-216.821
-217.968
-218.885
-219.588
-220.101
-220.444
-220.633
-220.675
-220.564
-220.298
-219.885
-219.334
-218.658
-217.868
-216.962
-215.95
-214.855
-213.685
-212.446
-211.107
-209.594
-207.845
-205.82
-203.493
-200.871
-197.96
-194.744
-191.251
-187.534
-183.662
-179.761
-175.924
-172.202
-168.674
-165.341
-162.266
-159.646
-157.542
-155.909
-154.631
-153.304
-151.576
-149.492
-147.007
-144.028
-140.78
-137.261
-133.813
-131.677
-131.942
-135.153
-141.51
-150.37
-160.571
-171.603
-182.378
-190.498
-193.394
-188.492
-174.324
-151.258
-120.048
-80.924
-35.046
13.36
57.249
88.883
103.936
106.008
101.844
95.513
84.602
53.814
-13.684
-130.209
-299.872
-502.28
-707.916
-881.799
-987.527
-1018.212
-982.082
-898.523
-797.81
-690.711
-580.4
-471.505
-367.242
-280.712
-224.304
-199.03
-195.771
-200.98
-205.154
-206.639
-210.713
-221.308
-236.835
-252.761
-263.776
-267.347
-264.056
-255.292
-242.512
-226.812
-209.493
-192.229
-176.121
-161.595
-148.577
-136.625
-125.409
-114.722
-104.146
-93.155
-81.459
-68.977
-55.818
-42.242
-28.43
-14.485
-0.545
13.242
26.805
40.126
53.239
66.222
79.122
91.956
104.751
117.53
130.3
143.056
155.779
168.441
181.021
193.503
205.866
218.088
230.141
241.992
253.607
264.947
275.968
286.627
296.877
306.669
315.961
324.712
332.885
340.445
347.36
353.598
359.13
363.929
367.97
371.225
373.668
375.277
376.031
375.917
374.926
373.052
370.295
366.664
362.17
356.832
350.669
343.708
335.978
327.51
318.339
308.505
298.049
287.018
275.459
263.426
250.972
238.153
225.027
211.654
198.093
184.401
170.637
156.858
143.119
129.476
115.978
102.678
89.622
76.858
64.431
52.381
40.745
29.558
18.848
8.641
-1.042
-10.185
-18.777
-26.81
-34.28
-41.186
-47.527
-53.306
-58.529
-63.205
-67.347
-70.969
-74.088
-76.726
-78.91
-80.666
-82.024
-83.013
-83.66
-83.989
-84.021
-83.774
-83.258
-82.483
-81.461
-80.205
-78.73
-77.055
-75.2
-73.19
-71.056
-68.823
-66.512
-64.136
-61.705
-59.229
-56.726
-54.213
-51.707
-49.226
-46.776
-44.365
-42.012
-39.72
-37.465
-35.199
-32.828
-30.275
-27.507
-24.485
-21.172
-17.532
-13.492
-9.055
-4.314
0.637
5.673
10.695
15.714
20.656
25.342
29.715
33.737
37.503
41.415
45.715
50.447
55.812
61.875
68.386
75.091
81.33
85.976
88.289
87.593
82.984
74.302
62.243
48.025
33.706
21.701
13.893
12.511
20.405
39.368
69.631
110.421
159.985
215.971
276.271
335.887
386.098
419.903
433.925
431.335
421.413
409.516
390.838
349.823
265.388
122.345
-75.491
-302.273
-520.17
-688.072
-779.474
-791.691
-735.703
-635.154
-513.632
-386.5
-267.436
-162.582
-75.773
-8.486
43.96
83.649
113.846
135.662
144.62
140.155
123.602
98.123
71.395
49.151
33.779
26.42
26.415
32.571
44.121
59.877
77.773
95.722
112.502
127.57
140.954
153.047
164.131
174.485
184.683
195.372
206.874
219.248
232.343
245.871
259.641
273.545
287.43
301.119
314.521
327.619
340.445
353.091
365.61
378.012
390.31
402.518
414.629
426.633
438.508
450.208
461.696
472.942
483.911
494.567
504.873
514.783
524.248
533.223
541.659
549.509
556.725
563.261
569.074
574.129
578.392
581.836
584.435
586.164
587.006
586.945
585.966
584.056
581.203
577.401
572.646
566.943
560.301
552.732
544.258
534.905
524.704
513.694
501.916
489.415
476.239
462.439
448.071
433.192
417.861
402.139
386.089
369.773
353.257
336.605
319.882
303.151
286.476
269.92
253.542
237.401
221.551
206.045
190.933
176.26
162.068
148.393
135.269
122.727
110.792
99.484
88.819
78.808
69.456
60.764
52.729
45.342
38.589
32.451
26.908
21.937
17.512
13.606
10.192
7.239
4.714
2.584
0.813
-0.636
-1.803
-2.729
-3.454
-4.016
-4.452
-4.797
-5.077
-5.313
-5.521
-5.711
-5.898
-6.093
-6.309
-6.558
-6.853
-7.213
-7.661
-8.218
-8.893
-9.682
-10.579
-11.579
-12.684
-13.897
-15.218
-16.647
-18.176
-19.809
-21.553
-23.406
-25.344
-27.307
-29.203
-30.951
-32.498
-33.814
-34.868
-35.629
-36.044
-36.092
-35.825
-35.322
-34.683
-33.989
-33.265
-32.522
-31.835
-31.371
-31.22
-31.357
-31.581
-31.524
-30.92
-29.682
-27.802
-25.237
-22.14
-18.854
-15.985
-14.648
-15.899
-20.473
-28.711
-40.382
-54.51
-69.795
-84.645
-96.715
-103.506
-102.535
-91.625
-69.948
-38.242
2.494
50.9
104.062
158.57
208.906
246.851
267.966
270.677
254.739
226.798
189.533
137.921
67.685
-34.743
-179.686
-356.858
-548.525
-722.024
-838.875
-884.952
-859.631
-775.882
-661.9
-536.293
-413.177
-307.945
-225.957
-169.378
-136.463
-115.589
-97.313
-78.14
-58.709
-45.756
-44.195
-53.139
-68.569
-84.473
-96.489
-103.541
-106.097
-104.869
-100.145
-92.15
-81.494
-69.322
-57.145
-45.812
-35.465
-26.071
-17.374
-9.149
-1.298
6.582
15.115
24.668
35.437
47.345
59.975
73.033
86.335
99.665
112.903
125.955
138.698
151.124
163.313
175.312
187.18
198.918
210.425
221.602
232.345
242.599
252.398
261.757
270.66
279.099
287.046
294.484
301.428
307.844
313.651
318.781
323.16
326.738
329.505
331.446
332.542
332.776
332.124
330.57
328.111
324.745
320.462
315.256
309.116
302.048
294.078
285.233
275.542
265.039
253.759
241.744
229.049
215.724
201.821
187.393
172.495
157.187
141.533
125.597
109.443
93.136
76.743
60.33
43.962
27.702
11.61
-4.259
-19.851
-35.116
-50.005
-64.477
-78.489
-92.006
-104.993
-117.416
-129.249
-140.469
-151.058
-161.003
-170.298
-178.939
-186.931
-194.282
-201.006
-207.119
-212.639
-217.585
-221.982
-225.857
-229.238
-232.157
-234.646
-236.741
-238.479
-239.9
-241.041
-241.938
-242.623
-243.127
-243.48
-243.711
-243.847
-243.914
-243.936
-243.94
-243.949
-243.993
-244.092
-244.263
-244.52
-244.868
-245.307
-245.837
-246.449
-247.13
-247.867
-248.651
-249.47
-250.317
-251.185
-252.068
-252.961
-253.857
-254.744
-255.608
-256.444
-257.247
-258.013
-258.736
-259.406
-260.012
-260.548
-261.003
-261.371
-261.649
-261.808
-261.811
-261.61
-261.142
-260.368
-259.262
-257.766
-255.808
-253.347
-250.394
-247.066
-243.563
-240.033
-236.57
-233.207
-229.966
-226.989
-224.355
-221.988
-219.691
-217.223
-214.541
-211.999
-210.023
-208.68
-208.056
-208.267
-209.549
-212.481
-217.196
-223.121
-229.653
-236.533
-243.505
-250.34
-256.45
-260.574
-261.89
-260.016
-254.317
-244.023
-228.458
-206.856
-178.951
-145.577
-107.819
-68.867
-34.481
-9.63
2.133
1.606
-4.997
-13.81
-28.473
-60.92
-131.798
-258.203
-436.001
-641.427
-833.476
-965.29
-1015.682
-988.806
-907.362
-809.368
-718.254
-640.463
-574.82
-510.679
-443.614
-378.046
-319.899
-276.353
-250.481
-240.498
-243.02
-254.229
-271.548
-292.795
-315.321
-336.562
-354.17
-366.92
-374.718
-377.838
-376.494
-371.105
-362.594
-352.227
-341.527
-331.409
-322.013
-313.251
-304.977
-297.071
-289.351
-281.463
-272.811
-263.021
-252.22
-240.638
-228.591
-216.363
-204.008
-191.566
-179.16
-166.845
-154.585
-142.336
-129.982
-117.416
-104.67
-91.794
-78.861
-65.965
-53.104
-40.265
-27.47
-14.728
-2.07
10.457
22.834
35.041
47.007
58.665
69.943
80.765
91.09
100.893
110.144
118.821
126.895
134.335
141.123
147.246
152.686
157.429
161.457
164.756
167.328
169.18
170.322
170.769
170.54
169.656
168.148
166.051
163.4
160.236
156.598
152.531
148.083
143.305
138.245
132.954
127.486
121.891
116.223
110.533
104.87
99.282
93.815
88.515
83.424
78.58
74.019
69.774
65.872
62.34
59.198
56.463
54.144
52.249
50.779
49.732
49.103
48.88
49.048
49.586
50.473
51.682
53.185
54.948
56.936
59.111
61.434
63.868
66.373
68.912
71.447
73.942
76.359
78.662
80.813
82.778
84.52
86.007
87.207
88.09
88.635
88.826
88.656
88.126
87.243
86.009
84.434
82.531
80.308
77.78
74.957
71.838
68.433
64.755
60.825
56.679
52.351
47.863
43.239
38.498
33.664
28.771
23.849
18.913
13.99
9.108
4.326
-0.249
-4.528
-8.44
-11.937
-15.004
-17.626
-19.773
-21.428
-22.609
-23.385
-23.875
-24.204
-24.463
-24.702
-24.911
-25.179
-25.704
-26.558
-27.744
-29.043
-29.977
-30.339
-30.238
-29.753
-28.953
-27.884
-26.351
-24.699
-24.037
-25.028
-27.916
-32.474
-37.711
-42.923
-48.073
-52.433
-54.244
-51.721
-43.081
-27.532
-5.678
22.219
56.651
97.67
142.353
184.706
218.534
238.26
245.512
248.338
250.076
251.404
241.434
196.662
100.514
-58.152
-271.453
-505.752
-723.992
-886.711
-969.171
-975.29
-918.467
-820.118
-702.182
-574.01
-445.038
-328.28
-232.789
-166.228
-129.572
-111.621
-100.753
-90.432
-79.402
-73.613
-77.879
-91.293
-108.966
-124.029
-132.618
-134.388
-130.567
-122.89
-112.041
-98.517
-83.731
-69.243
-56.096
-44.671
-34.651
-25.552
-17.088
-9.009
-0.915
7.762
17.455
28.344
40.451
53.555
67.314
81.51
95.93
110.344
124.67
138.846
152.793
166.554
180.194
193.74
207.26
220.762
234.164
247.398
260.374
273.041
285.439
297.588
309.479
321.111
332.463
343.519
354.294
364.759
374.837
384.462
393.562
402.082
410
417.292
423.925
429.871
435.089
439.547
443.224
446.096
448.135
449.31
449.591
448.96
447.418
444.968
441.614
437.365
432.231
426.23
419.391
411.742
403.31
394.127
384.228
373.654
362.451
350.669
338.357
325.568
312.356
298.778
284.891
270.752
256.419
241.948
227.394
212.814
198.264
183.797
169.465
155.316
141.399
127.757
114.434
101.467
88.888
76.725
65.004
53.75
42.98
32.71
22.949
13.705
4.982
-3.218
-10.899
-18.068
-24.737
-30.92
-36.632
-41.89
-46.709
-51.106
-55.1
-58.712
-61.961
-64.868
-67.456
-69.75
-71.776
-73.562
-75.13
-76.505
-77.706
-78.748
-79.638
-80.381
-80.975
-81.421
-81.72
-81.876
-81.889
-81.761
-81.498
-81.113
-80.622
-80.032
-79.34
-78.534
-77.606
-76.555
-75.391
-74.117
-72.73
-71.223
-69.588
-67.827
-65.956
-63.974
-61.854
-59.534
-56.937
-54
-50.707
-47.057
-43.032
-38.603
-33.745
-28.48
-22.934
-17.287
-11.694
-6.257
-0.996
4.11
8.992
13.471
17.422
20.874
24.083
27.358
30.708
33.824
36.395
38.434
40.203
41.918
43.189
43.248
41.696
38.721
35.028
31.136
27.055
22.683
18.769
16.858
18.482
24.746
35.975
52.53
75.451
106.187
143.24
181.785
217.21
244.156
263.839
284.785
308.331
333.076
348.713
329.008
259.072
130.02
-59.198
-279.49
-500.84
-690.94
-812.668
-859.194
-835.458
-753.52
-641.674
-515.985
-388.008
-274.026
-180.254
-112.09
-71.033
-45.885
-27.378
-10.257
6.554
15.951
13.279
-0.598
-21.699
-42.83
-59
-69.172
-73.769
-73.929
-70.476
-63.689
-54.342
-43.81
-33.605
-24.63
-17.042
-10.656
-5.092
-0.044
4.706
9.61
15.288
22.2
30.598
40.467
51.497
63.315
75.657
88.291
101.056
113.875
126.655
139.359
152.037
164.766
177.624
190.645
203.769
216.864
229.796
242.486
254.929
267.171
279.238
291.122
302.808
314.285
325.56
336.618
347.4
357.808
367.74
377.122
385.909
394.078
401.602
408.441
414.552
419.888
424.418
428.11
430.931
432.839
433.793
433.76
432.729
430.703
427.686
423.684
418.709
412.775
405.91
398.145
389.514
380.046
369.779
358.754
347.02
334.63
321.641
308.111
294.101
279.676
264.904
249.849
234.58
219.161
203.655
188.125
172.633
157.238
142
126.973
112.214
97.775
83.709
70.065
56.885
44.208
32.068
20.496
9.514
-0.859
-10.613
-19.739
-28.234
-36.097
-43.329
-49.938
-55.936
-61.338
-66.161
-70.429
-74.165
-77.399
-80.161
-82.483
-84.399
-85.939
-87.135
-88.017
-88.614
-88.96
-89.083
-89.015
-88.786
-88.43
-87.98
-87.466
-86.916
-86.356
-85.808
-85.289
-84.813
-84.386
-84.009
-83.681
-83.404
-83.176
-82.996
-82.861
-82.767
-82.711
-82.697
-82.722
-82.784
-82.876
-82.98
-83.083
-83.176
-83.25
-83.293
-83.293
-83.226
-83.077
-82.847
-82.528
-82.104
-81.537
-80.756
-79.706
-78.352
-76.67
-74.642
-72.269
-69.547
-66.535
-63.354
-60.13
-56.999
-54.054
-51.322
-48.836
-46.632
-44.757
-43.299
-42.327
-41.861
-41.93
-42.562
-43.723
-45.366
-47.312
-49.243
-50.758
-51.342
-50.639
-48.583
-45.332
-41.296
-36.874
-32.237
-27.745
-24.115
-21.684
-20.186
-18.633
-15.169
-8.403
2.334
18.02
39.767
67.954
100.51
132.502
157.988
173.038
179.442
180.895
178.633
169.628
141.137
79.782
-23.802
-173.797
-354.877
-543.225
-708.775
-817.5
-859.187
-837.374
-767.249
-675.669
-573.332
-465.096
-357.008
-252.963
-166
-107.438
-77.372
-67.737
-66.201
-64.277
-61.711
-64.396
-76.5
-97.039
-121.378
-142.854
-157.757
-165.833
-167.623
-164.141
-156.196
-144.438
-130.345
-115.858
-102.087
-89.388
-77.814
-67.112
-57.111
-47.732
-38.562
-29
-18.752
-7.781
3.785
15.656
27.634
39.617
51.494
63.183
74.655
85.925
97.057
108.144
119.259
130.452
141.739
153.096
164.499
175.918
187.323
198.689
209.99
221.19
232.249
243.119
253.748
264.083
274.066
283.634
292.724
301.271
309.221
316.532
323.16
329.068
334.218
338.572
342.098
344.769
346.557
347.436
347.38
346.366
344.376
341.4
337.434
332.476
326.534
319.62
311.755
302.964
293.281
282.742
271.387
259.262
246.415
232.9
218.773
204.096
188.93
173.34
157.394
141.161
124.709
108.106
91.42
74.717
58.063
41.521
25.155
9.024
-6.812
-22.294
-37.368
-51.981
-66.084
-79.633
-92.589
-104.919
-116.593
-127.591
-137.897
-147.498
-156.388
-164.566
-172.032
-178.793
-184.859
-190.245
-194.969
-199.053
-202.523
-205.407
-207.738
-209.549
-210.875
-211.751
-212.21
-212.287
-212.017
-211.434
-210.576
-209.478
-208.179
-206.717
-205.13
-203.455
-201.725
-199.975
-198.229
-196.512
-194.841
-193.225
-191.674
-190.196
-188.798
-187.485
-186.264
-185.138
-184.11
-183.193
-182.391
-181.709
-181.149
-180.703
-180.363
-180.126
-179.983
-179.927
-179.948
-180.026
-180.146
-180.301
-180.482
-180.673
-180.841
-180.92
-180.85
-180.59
-180.099
-179.353
-178.346
-177.068
-175.55
-173.891
-172.195
-170.585
-169.182
-168.043
-167.214
-166.728
-166.629
-166.997
-167.909
-169.417
-171.544
-174.289
-177.595
-181.405
-185.585
-189.851
-193.819
-196.947
-198.768
-199.1
-198.066
-196.05
-193.418
-190.461
-187.615
-185.511
-184.554
-184.587
-184.512
-182.45
-176.843
-166.169
-148.704
-123.535
-90.361
-51.213
-11.843
23.331
51.413
70.619
82.619
83.536
64.934
19.205
-62.538
-182.606
-336.293
-512.279
-691.654
-850.995
-963.544
-1015.488
-1006.639
-946.886
-861.72
-767.53
-670.238
-577.449
-486.285
-399.98
-329.807
-276.537
-242.232
-225.062
-216.722
-217.433
-226.443
-241.117
-260.624
-279.009
-291.566
-297.488
-296.163
-288.709
-276.873
-261.293
-243.204
-224.704
-207.014
-190.726
-176.072
-162.568
-149.743
-137.389
-125.064
-112.161
-98.374
-83.586
-67.833
-51.392
-34.485
-17.246
0.132
17.461
34.643
51.64
68.465
85.178
101.815
118.382
134.893
151.364
167.791
184.151
200.412
216.527
232.454
248.162
263.617
278.779
293.604
308.045
322.048
335.561
348.531
360.903
372.619
383.621
393.859
403.288
411.868
419.562
426.338
432.166
437.019
440.877
443.722
445.532
446.294
445.995
444.627
442.192
438.695
434.148
428.569
421.983
414.421
405.921
396.523
386.274
375.222
363.42
350.924
337.794
324.091
309.882
295.232
280.208
264.878
249.311
233.573
217.732
201.853
186.002
170.242
154.636
139.244
124.123
109.329
94.914
80.926
67.41
54.404
41.941
30.049
18.752
8.069
-1.985
-11.402
-20.176
-28.308
-35.802
-42.667
-48.915
-54.563
-59.633
-64.149
-68.139
-71.63
-74.65
-77.228
-79.394
-81.178
-82.613
-83.73
-84.563
-85.149
-85.525
-85.729
-85.796
-85.761
-85.655
-85.504
-85.333
-85.158
-84.989
-84.834
-84.702
-84.602
-84.54
-84.523
-84.555
-84.641
-84.792
-85.016
-85.313
-85.683
-86.115
-86.596
-87.118
-87.67
-88.242
-88.821
-89.384
-89.912
-90.399
-90.829
-91.182
-91.419
-91.463
-91.246
-90.721
-89.845
-88.593
-86.955
-84.927
-82.545
-79.918
-77.159
-74.397
-71.751
-69.279
-67.026
-65.027
-63.332
-62.018
-61.161
-60.824
-61.031
-61.787
-63.07
-64.824
-66.911
-69.07
-70.912
-71.864
-71.487
-69.591
-66.194
-61.66
-56.337
-50.411
-44.365
-38.931
-34.476
-30.88
-27.41
-22.445
-14.268
-1.587
17.193
43.908
77.538
114.452
151.205
182.421
207.708
232.971
256.575
274.342
276.188
240.365
157.36
25.802
-151.529
-352.974
-556.377
-740.58
-877.626
-951.252
-958.153
-900.235
-791.192
-652.929
-500.848
-354.067
-235.11
-151.168
-105.749
-92.742
-90.421
-87.039
-77.997
-63.868
-55.878
-58.894
-70.277
-85.896
-98.639
-105.011
-105.954
-102.544
-95.909
-86.749
-75.388
-62.799
-50.476
-39.319
-29.423
-20.571
-12.401
-4.632
2.868
10.442
18.722
28.185
39.072
51.381
64.785
78.891
93.432
108.166
122.912
137.579
152.058
166.294
180.34
194.274
208.177
222.091
235.958
249.645
263.025
276.02
288.628
300.9
312.866
324.525
335.872
346.904
357.637
368.067
378.142
387.772
396.868
405.36
413.215
420.418
426.952
432.787
437.888
442.221
445.76
448.485
450.369
451.377
451.477
450.643
448.871
446.168
442.545
438.015
432.592
426.296
419.157
411.207
402.48
393.008
382.827
371.979
360.51
348.47
335.914
322.897
309.475
295.709
281.658
267.384
252.945
238.397
223.797
209.2
194.66
180.228
165.957
151.894
138.088
124.586
111.431
98.661
86.313
74.414
62.991
52.065
41.649
31.752
22.382
13.542
5.231
-2.552
-9.813
-16.563
-22.814
-28.582
-33.889
-38.757
-43.212
-47.282
-50.995
-54.376
-57.45
-60.243
-62.778
-65.081
-67.176
-69.087
-70.842
-72.467
-73.99
-75.438
-76.832
-78.189
-79.528
-80.858
-82.188
-83.516
-84.836
-86.142
-87.434
-88.706
-89.955
-91.175
-92.359
-93.503
-94.611
-95.681
-96.704
-97.669
-98.557
-99.352
-100.047
-100.632
-101.094
-101.42
-101.59
-101.595
-101.438
-101.116
-100.612
-99.886
-98.869
-97.502
-95.756
-93.61
-91.045
-88.059
-84.668
-80.947
-77.038
-73.088
-69.218
-65.506
-61.988
-58.692
-55.64
-52.88
-50.487
-48.534
-47.114
-46.299
-46.136
-46.648
-47.774
-49.328
-50.986
-52.284
-52.659
-51.805
-49.717
-46.592
-42.954
-39.257
-35.759
-32.99
-31.68
-31.937
-33.119
-33.999
-32.612
-27.185
-16.488
0.956
26.561
58.734
92.915
124.555
149.508
168.839
187.316
203.475
209.584
191.733
134.022
31.063
-112.903
-286.103
-468.687
-642.032
-784.325
-873.191
-900.087
-862.558
-773.945
-660.486
-537.954
-422.659
-321.757
-232.047
-158.54
-100.799
-58.726
-34.235
-22.255
-22.368
-33.741
-53.102
-78.987
-105.645
-127.438
-142.432
-149.648
-149.9
-144.831
-135.167
-121.83
-106.714
-91.785
-78.275
-66.673
-56.785
-48.039
-40.069
-32.652
-25.235
-17.132
-7.917
2.659
14.466
27.047
40.09
53.385
66.723
80.004
93.158
106.096
118.844
131.509
144.159
156.872
169.671
182.477
195.212
207.785
220.153
232.356
244.412
256.314
268.054
279.601
290.935
302.065
312.954
323.521
333.691
343.384
352.542
361.142
369.155
376.547
383.284
389.324
394.629
399.177
402.942
405.892
407.998
409.223
409.546
408.964
407.475
405.081
401.786
397.595
392.524
386.598
379.845
372.29
363.967
354.909
345.157
334.759
323.761
312.215
300.175
287.698
274.842
261.668
248.239
234.614
220.854
207.02
193.169
179.359
165.642
152.071
138.696
125.565
112.724
100.219
88.09
76.376
65.112
54.328
44.05
34.3
25.094
16.442
8.35
0.821
-6.15
-12.567
-18.44
-23.78
-28.603
-32.926
-36.772
-40.165
-43.131
-45.7
-47.905
-49.78
-51.361
-52.682
-53.775
-54.672
-55.403
-55.997
-56.482
-56.884
-57.229
-57.542
-57.85
-58.181
-58.559
-59.007
-59.537
-60.166
-60.903
-61.757
-62.729
-63.813
-64.995
-66.264
-67.614
-69.037
-70.523
-72.064
-73.647
-75.265
-76.92
-78.607
-80.317
-82.036
-83.741
-85.409
-87.026
-88.578
-90.057
-91.465
-92.794
-94.04
-95.212
-96.307
-97.312
-98.196
-98.893
-99.333
-99.475
-99.28
-98.723
-97.83
-96.65
-95.262
-93.789
-92.292
-90.807
-89.385
-88.071
-86.907
-85.919
-85.101
-84.457
-84.123
-84.337
-85.23
-86.762
-88.609
-90.332
-91.67
-92.597
-93.052
-92.651
-91.209
-89.016
-87.115
-87.101
-89.952
-95.559
-103.378
-113.27
-124.748
-136.738
-147.109
-152.129
-148.792
-135.902
-112.8
-80.799
-43.789
-5.331
29.265
58.245
86.372
114.926
144.189
163.683
149.253
83.771
-46.545
-238.141
-459.569
-676.285
-846.908
-939.232
-953.886
-904.195
-816.589
-719.243
-618.502
-514.811
-408.625
-304.067
-216.842
-159.73
-133.829
-129.089
-130.345
-127.697
-120.489
-115.569
-118.344
-128.728
-142.998
-155.327
-162.938
-166.254
-166.039
-163.162
-157.878
-150.296
-141.42
-132.666
-124.802
-117.942
-111.849
-106.176
-100.788
-95.561
-90.09
-83.689
-75.764
-66.116
-54.865
-42.366
-29.058
-15.226
-1.028
13.358
27.804
42.244
56.633
71.027
85.554
100.263
115.124
130.023
144.762
159.215
173.346
187.16
200.716
214.045
227.126
239.957
252.551
264.893
276.941
288.615
299.786
310.348
320.238
329.414
337.854
345.525
352.38
358.372
363.461
367.609
370.783
372.945
374.049
374.062
372.968
370.767
367.477
363.115
357.702
351.264
343.838
335.464
326.19
316.06
305.123
293.432
281.049
268.04
254.474
240.426
225.972
211.19
196.16
180.964
165.678
150.382
135.148
120.052
105.163
90.55
76.279
62.412
49.008
36.124
23.812
12.118
1.083
-9.26
-18.884
-27.768
-35.901
-43.274
-49.888
-55.746
-60.857
-65.234
-68.895
-71.861
-74.162
-75.828
-76.896
-77.406
-77.4
-76.926
-76.03
-74.759
-73.158
-71.274
-69.15
-66.83
-64.36
-61.783
-59.143
-56.484
-53.847
-51.271
-48.793
-46.447
-44.259
-42.25
-40.428
-38.794
-37.347
-36.086
-35.008
-34.106
-33.376
-32.808
-32.399
-32.155
-32.076
-32.152
-32.367
-32.69
-33.094
-33.565
-34.088
-34.653
-35.249
-35.848
-36.433
-37.001
-37.539
-38.026
-38.413
-38.601
-38.509
-38.083
-37.289
-36.13
-34.605
-32.701
-30.425
-27.821
-24.973
-22.015
-19.079
-16.261
-13.624
-11.162
-8.964
-7.235
-6.055
-5.44
-5.186
-4.826
-4.144
-3.241
-2.178
-0.998
0.275
1.879
3.492
4.017
2.783
-0.518
-5.714
-11.846
-18.312
-25.128
-31.494
-35.636
-35.717
-29.681
-16.632
2.874
29.012
62.335
102.232
145.529
186.253
217.718
236.017
243.685
244.936
240.337
225.635
186.66
108.91
-14.28
-183.368
-383.216
-590.188
-779.516
-923.273
-1005.017
-1021.352
-977.894
-889.977
-771.516
-633.563
-487.481
-347.986
-235.236
-163.173
-135.969
-143.778
-163.577
-180.221
-187.994
-188.658
-192.5
-202.533
-214.887
-225.852
-230.618
-227.981
-220.285
-209.23
-196.028
-182.122
-168.707
-156.518
-146.052
-137.158
-129.143
-121.501
-113.942
-106.042
-97.321
-87.444
-76.1
-63.156
-48.789
-33.269
-16.937
-0.14
16.854
33.888
50.872
67.711
84.363
100.829
117.147
133.381
149.553
165.606
181.407
196.813
211.737
226.161
240.126
253.654
266.738
279.366
291.531
303.245
314.504
325.257
335.418
344.897
353.63
361.578
368.729
375.065
380.56
385.186
388.915
391.727
393.61
394.547
394.514
393.486
391.451
388.412
384.388
379.4
373.47
366.623
358.892
350.314
340.935
330.796
319.942
308.416
296.271
283.562
270.348
256.689
242.648
228.288
213.674
198.871
183.943
168.951
153.956
139.015
124.185
109.52
95.071
80.887
67.015
53.5
40.383
27.704
15.497
3.79
-7.392
-18.029
-28.106
-37.614
-46.549
-54.91
-62.699
-69.922
-76.588
-82.708
-88.298
-93.379
-97.971
-102.098
-105.788
-109.072
-111.98
-114.546
-116.797
-118.763
-120.475
-121.962
-123.253
-124.377
-125.362
-126.234
-127.023
-127.757
-128.462
-129.163
-129.88
-130.628
-131.421
-132.26
-133.143
-134.064
-135.015
-135.988
-136.976
-137.972
-138.972
-139.98
-141.003
-142.049
-143.121
-144.212
-145.309
-146.403
-147.489
-148.566
-149.637
-150.7
-151.753
-152.801
-153.861
-154.937
-156.018
-157.051
-157.951
-158.638
-159.063
-159.202
-159.03
-158.525
-157.651
-156.395
-154.832
-153.058
-151.174
-149.27
-147.365
-145.459
-143.668
-142.188
-141.139
-140.555
-140.227
-139.735
-138.836
-137.411
-135.265
-132.263
-128.427
-123.952
-119.682
-117.031
-117.205
-121.253
-130.01
-143.46
-160.894
-181.175
-202.032
-220.391
-233.266
-237.384
-229.714
-209.01
-175.611
-130.364
-75.611
-15.324
46.401
102.858
144.6
166.641
166.976
145.512
109.656
62.016
-2.709
-88.809
-206.815
-362.264
-543.15
-730.525
-897.429
-1014.916
-1068.801
-1058.447
-990.277
-878.021
-739.416
-587.636
-441.638
-325.214
-247.926
-213.929
-215.037
-226.617
-235.318
-236.076
-229.206
-225.97
-230.686
-239.614
-249.149
-253.937
-251.476
-243.465
-231.708
-217.478
-202.18
-187.225
-173.328
-160.933
-150.183
-140.513
-131.455
-122.819
-114.127
-104.851
-94.767
-83.669
-71.552
-58.628
-44.963
-30.731
-16.172
-1.461
13.203
27.723
42.106
56.343
70.425
84.386
98.232
111.99
125.722
139.397
152.972
166.401
179.6
192.566
205.317
217.83
230.096
242.099
253.797
265.18
276.24
286.916
297.151
306.893
316.07
324.647
332.596
339.882
346.479
352.358
357.485
361.84
365.408
368.165
370.091
371.163
371.359
370.675
369.113
366.676
363.373
359.216
354.223
348.419
341.837
334.508
326.466
317.749
308.397
298.457
287.978
277.012
265.612
253.833
241.734
229.372
216.808
204.097
191.296
178.459
165.637
152.882
140.241
127.76
115.483
103.452
91.707
80.287
69.227
58.56
48.312
38.507
29.165
20.301
11.924
4.04
-3.353
-10.256
-16.674
-22.615
-28.089
-33.112
-37.7
-41.874
-45.655
-49.068
-52.14
-54.901
-57.38
-59.605
-61.604
-63.402
-65.023
-66.49
-67.826
-69.05
-70.183
-71.245
-72.256
-73.237
-74.208
-75.183
-76.174
-77.19
-78.242
-79.333
-80.46
-81.614
-82.777
-83.938
-85.089
-86.216
-87.309
-88.353
-89.336
-90.253
-91.107
-91.898
-92.615
-93.244
-93.761
-94.15
-94.404
-94.518
-94.49
-94.318
-93.992
-93.51
-92.891
-92.137
-91.233
-90.138
-88.768
-87.06
-84.987
-82.523
-79.662
-76.438
-72.883
-69.075
-65.129
-61.122
-57.13
-53.245
-49.513
-45.964
-42.633
-39.523
-36.754
-34.57
-33.069
-32.185
-31.686
-31.2
-30.55
-29.827
-28.94
-27.459
-25.176
-22.32
-19.803
-19.056
-20.889
-25.017
-30.868
-38.412
-47.436
-56.965
-64.956
-68.201
-64.042
-51.72
-31.212
-1.671
35.406
75.61
114.44
144.996
165.799
184.115
201.492
216.502
220.703
191.528
116.205
-9.632
-183.943
-382.827
-579.971
-749.3
-860.978
-902.287
-874.314
-784.951
-654.188
-504.899
-352.79
-216.679
-115.002
-51.8
-28.188
-34.96
-49.395
-60.871
-65.861
-64.916
-68.531
-79.837
-94.163
-107.867
-116.125
-116.888
-112.172
-103.683
-92.314
-79.299
-66.092
-53.604
-42.489
-32.973
-24.508
-16.618
-9.126
-1.659
6.289
15.041
24.807
35.658
47.412
59.789
72.595
85.627
98.672
111.651
124.542
137.315
150.005
162.676
175.348
188.071
200.899
213.793
226.713
239.603
252.383
265.05
277.615
290.055
302.352
314.477
326.384
338.052
349.461
360.543
371.232
381.462
391.16
400.285
408.801
416.665
423.843
430.295
435.979
440.868
444.935
448.15
450.485
451.91
452.396
451.931
450.509
448.128
444.79
440.503
435.279
429.142
422.122
414.25
405.56
396.093
385.892
375.008
363.493
351.404
338.799
325.74
312.291
298.517
284.484
270.258
255.906
241.492
227.079
212.731
198.507
184.465
170.66
157.147
143.977
131.201
118.864
107.01
95.677
84.902
74.715
65.141
56.199
47.903
40.261
33.275
26.943
21.258
16.209
11.78
7.952
4.705
2.014
-0.151
-1.819
-3.024
-3.8
-4.185
-4.215
-3.931
-3.37
-2.569
-1.565
-0.391
0.918
2.328
3.809
5.328
6.854
8.355
9.802
11.167
12.426
13.556
14.54
15.361
16.013
16.499
16.827
17.009
17.055
16.975
16.783
16.491
16.112
15.651
15.102
14.463
13.738
12.94
12.091
11.214
10.314
9.399
8.472
7.534
6.601
5.678
4.749
3.812
2.883
2.008
1.283
0.792
0.587
0.703
1.145
1.913
3.014
4.417
6.057
7.858
9.701
11.49
13.187
14.733
16.106
17.23
17.868
17.889
17.341
16.374
15.409
14.868
14.77
15.175
16.316
18.117
20.454
22.841
23.765
21.717
16.097
6.744
-5.903
-20.702
-36.761
-52.576
-64.944
-70.358
-66.113
-50.48
-23.365
14.139
60.822
114.301
170.048
222.468
265.39
292.899
300.298
283.236
239.891
172.463
84.5
-18.829
-136.834
-274.937
-431.715
-598.712
-754.519
-865.061
-910.27
-885.25
-802.696
-694.505
-583.129
-479.782
-388.086
-300.704
-216.17
-140.266
-78.689
-37.475
-17.996
-16.767
-29.408
-51.092
-77.28
-103.543
-125.749
-141.478
-149.918
-151.241
-146.28
-136.148
-122.051
-105.838
-89.682
-74.838
-61.758
-50.4
-40.287
-31.009
-22.328
-13.687
-4.328
6.181
18.08
31.265
45.255
59.717
74.432
89.156
103.761
118.157
132.235
146.012
159.604
173.083
186.535
199.99
213.372
226.604
239.605
252.335
264.837
277.132
289.214
301.081
312.708
324.082
335.218
346.084
356.6
366.696
376.296
385.341
393.813
401.686
408.928
415.508
421.385
426.524
430.905
434.501
437.282
439.217
440.267
440.411
439.643
437.958
435.354
431.834
427.399
422.06
415.839
408.756
400.834
392.097
382.575
372.302
361.318
349.669
337.399
324.56
311.206
297.391
283.175
268.615
253.769
238.693
223.445
208.082
192.659
177.233
161.856
146.585
131.472
116.572
101.934
87.606
73.632
60.05
46.898
34.206
21.998
10.298
-0.879
-11.517
-21.603
-31.128
-40.089
-48.484
-56.317
-63.597
-70.337
-76.551
-82.263
-87.494
-92.269
-96.611
-100.544
-104.093
-107.281
-110.136
-112.682
-114.948
-116.963
-118.759
-120.368
-121.822
-123.148
-124.373
-125.523
-126.619
-127.678
-128.705
-129.703
-130.671
-131.616
-132.542
-133.455
-134.355
-135.243
-136.13
-137.032
-137.964
-138.929
-139.92
-140.921
-141.916
-142.898
-143.868
-144.826
-145.764
-146.673
-147.55
-148.409
-149.258
-150.086
-150.843
-151.443
-151.808
-151.887
-151.652
-151.09
-150.206
-149.017
-147.573
-145.97
-144.306
-142.675
-141.167
-139.834
-138.708
-137.813
-137.161
-136.865
-137.142
-138.088
-139.619
-141.472
-143.288
-144.895
-146.421
-147.836
-148.708
-148.777
-148.221
-147.947
-149.403
-153.442
-159.778
-167.709
-177.069
-187.684
-198.823
-208.403
-212.966
-209.763
-197.998
-177.989
-149.649
-112.945
-68.786
-21.528
20.978
51.7
66.527
67.36
58.09
39.554
9.613
-42.534
-128.511
-255.523
-426.204
-623.935
-822.491
-991.824
-1099.292
-1134.262
-1099.445
-1005.825
-878.671
-735.321
-590.725
-464.159
-364.2
-295.876
-259.052
-240.438
-227.996
-215.723
-202.506
-195.051
-198.712
-212.692
-232.097
-249.663
-261.329
-266.739
-266.917
-263.55
-257.25
-248.174
-237.624
-227.309
-218.299
-211.057
-205.364
-200.643
-196.597
-192.981
-189.242
-184.626
-178.497
-170.512
-160.708
-149.383
-136.894
-123.622
-109.89
-95.952
-82.002
-68.128
-54.353
-40.654
-26.96
-13.209
0.619
14.463
28.182
41.633
54.741
67.481
79.886
92.037
103.973
115.717
127.308
138.755
150.038
161.124
171.932
182.355
192.32
201.776
210.693
219.053
226.825
233.967
240.438
246.196
251.202
255.414
258.784
261.267
262.829
263.451
263.126
261.862
259.664
256.542
252.513
247.597
241.817
235.202
227.78
219.579
210.637
200.994
190.698
179.8
168.354
156.417
144.049
131.311
118.267
104.977
91.504
77.906
64.245
50.579
36.966
23.463
10.125
-2.992
-15.834
-28.352
-40.497
-52.225
-63.5
-74.286
-84.555
-94.285
-103.459
-112.064
-120.091
-127.536
-134.395
-140.669
-146.366
-151.493
-156.067
-160.102
-163.622
-166.649
-169.211
-171.337
-173.058
-174.401
-175.397
-176.075
-176.464
-176.595
-176.5
-176.21
-175.759
-175.183
-174.514
-173.786
-173.028
-172.268
-171.53
-170.832
-170.188
-169.603
-169.081
-168.628
-168.246
-167.935
-167.698
-167.533
-167.441
-167.428
-167.496
-167.644
-167.869
-168.16
-168.505
-168.895
-169.317
-169.761
-170.211
-170.646
-171.046
-171.405
-171.707
-171.935
-172.053
-171.987
-171.675
-171.073
-170.138
-168.846
-167.189
-165.161
-162.8
-160.209
-157.499
-154.799
-152.229
-149.851
-147.712
-145.851
-144.319
-143.197
-142.565
-142.485
-142.978
-144.044
-145.637
-147.681
-150.031
-152.425
-154.487
-155.679
-155.556
-153.925
-150.876
-146.823
-142.112
-136.902
-131.567
-126.71
-122.695
-119.48
-116.134
-110.81
-102.091
-88.969
-70.057
-44.21
-11.052
27.417
65.865
98.163
120.336
134.273
144.071
150.329
148.765
124.176
60.306
-51.015
-211.702
-406.163
-608.92
-794.743
-934.106
-1007.477
-1009.952
-943.277
-824.165
-678.981
-529.946
-400.42
-305.461
-243.939
-210.051
-191.024
-174.129
-156.573
-140.624
-132.568
-136.562
-150.931
-170.297
-187.302
-197.853
-201.242
-197.921
-189.414
-176.882
-160.951
-143.128
-125.263
-108.349
-92.895
-78.944
-66.062
-53.95
-42.394
-30.906
-18.906
-6.102
7.601
22.119
37.197
52.646
68.346
84.123
99.788
115.24
130.448
145.428
160.25
174.963
189.581
204.13
218.636
233.103
247.52
261.864
276.098
290.191
304.12
317.857
331.376
344.645
357.627
370.281
382.564
394.429
405.828
416.712
427.03
436.738
445.797
454.172
461.832
468.75
474.899
480.259
484.81
488.535
491.416
493.437
494.584
494.848
494.226
492.718
490.33
487.073
482.964
478.028
472.29
465.785
458.549
450.621
442.045
432.868
423.138
412.908
402.231
391.164
379.763
368.086
356.191
344.136
331.977
319.772
307.573
295.433
283.403
271.529
259.856
248.427
237.282
226.458
215.991
205.911
196.248
187.027
178.271
169.995
162.214
154.934
148.161
141.892
136.124
130.845
126.042
121.7
117.798
114.317
111.234
108.524
106.161
104.115
102.358
100.859
99.588
98.512
97.599
96.818
96.14
95.539
94.992
94.476
93.969
93.453
92.908
92.316
91.661
90.923
90.089
89.145
88.081
86.891
85.57
84.123
82.559
80.892
79.137
77.307
75.415
73.477
71.508
69.521
67.525
65.52
63.509
61.501
59.513
57.563
55.671
53.845
52.097
50.44
48.892
47.474
46.193
45.043
44.018
43.131
42.42
41.955
41.794
41.965
42.491
43.378
44.617
46.223
48.142
50.256
52.446
54.551
56.451
58.132
59.563
60.706
61.541
61.895
61.596
60.754
59.423
57.674
55.694
53.345
50.542
47.771
45.586
44.122
43.466
43.184
42.494
41.519
40.535
39.25
37.338
34.84
32.061
30.442
32.2
38.487
50.013
67.348
90.705
120.159
154.785
191.767
227.45
256.34
272.915
274.912
258.482
225.239
180.905
122.758
51.135
-39.889
-163.214
-311.213
-470.001
-616.558
-715.21
-753.878
-735.155
-671.391
-590.936
-509.823
-432.959
-361.775
-290.283
-217.553
-149.008
-90.77
-48.471
-23.608
-14.111
-16.772
-27.749
-44.074
-62.635
-79.348
-91.697
-98.553
-99.555
-95.568
-87.612
-76.375
-63.147
-49.78
-37.441
-26.725
-17.815
-10.235
-3.529
2.559
8.473
14.776
21.833
29.821
38.791
48.577
58.906
69.587
80.423
91.201
101.846
112.345
122.672
132.857
142.957
152.993
163.009
173.061
183.117
193.14
203.087
212.893
222.571
232.146
241.608
250.95
260.151
269.178
278.018
286.66
295.043
303.107
310.797
318.046
324.821
331.094
336.827
341.991
346.548
350.462
353.708
356.264
358.1
359.19
359.508
359.025
357.732
355.626
352.702
348.963
344.415
339.067
332.94
326.058
318.445
310.129
301.143
291.522
281.307
270.543
259.276
247.555
235.432
222.961
210.198
197.199
184.021
170.718
157.347
143.962
130.614
117.354
104.231
91.289
78.573
66.126
53.986
42.192
30.776
19.771
9.203
-0.905
-10.534
-19.67
-28.304
-36.431
-44.051
-51.167
-57.788
-63.923
-69.584
-74.788
-79.552
-83.896
-87.845
-91.421
-94.652
-97.567
-100.195
-102.568
-104.719
-106.675
-108.465
-110.114
-111.644
-113.08
-114.44
-115.744
-117.009
-118.254
-119.495
-120.752
-122.038
-123.364
-124.736
-126.16
-127.635
-129.156
-130.711
-132.283
-133.853
-135.407
-136.93
-138.409
-139.828
-141.171
-142.426
-143.589
-144.652
-145.6
-146.415
-147.072
-147.553
-147.844
-147.934
-147.81
-147.461
-146.872
-146.038
-144.966
-143.66
-142.108
-140.278
-138.112
-135.564
-132.612
-129.242
-125.444
-121.219
-116.59
-111.633
-106.482
-101.284
-96.156
-91.176
-86.385
-81.827
-77.541
-73.581
-70.02
-66.909
-64.324
-62.343
-61.034
-60.454
-60.571
-61.234
-62.192
-63.086
-63.469
-63.061
-61.752
-59.555
-56.801
-53.851
-50.92
-48.48
-47.171
-47.228
-48.482
-50.271
-51.244
-49.915
-45.08
-35.385
-19.031
3.544
29.009
53.893
73.538
86.999
100.796
117.948
137.006
151.249
139.405
81.988
-30.423
-202.156
-415.262
-637.229
-837.232
-979.652
-1042.365
-1027.762
-945.139
-814.824
-665.636
-513.594
-374.902
-267.855
-194.28
-154.849
-144.237
-143.443
-143.915
-143.415
-142.026
-147.992
-163.587
-184.219
-205.122
-220.921
-229.414
-231.724
-229.168
-222.898
-213.807
-203.118
-192.509
-183.056
-175.164
-168.682
-163.066
-157.971
-153.203
-148.307
-142.654
-135.751
-127.293
-117.303
-106.132
-94.159
-81.676
-68.931
-56.086
-43.233
-30.463
-17.809
-5.215
7.405
20.142
33.048
46.082
59.127
72.061
84.81
97.376
109.813
122.152
134.394
146.529
158.551
170.471
182.285
193.939
205.34
216.394
227.025
237.192
246.871
256.036
264.646
272.658
280.024
286.708
292.679
297.898
302.321
305.9
308.596
310.389
311.273
311.245
310.3
308.436
305.66
301.987
297.436
292.03
285.787
278.734
270.901
262.325
253.05
243.12
232.582
221.49
209.896
197.859
185.436
172.686
159.667
146.437
133.053
119.571
106.047
92.535
79.088
65.759
52.598
39.657
26.984
14.623
2.614
-9.003
-20.198
-30.942
-41.212
-50.991
-60.268
-69.033
-77.282
-85.012
-92.225
-98.926
-105.125
-110.834
-116.07
-120.851
-125.199
-129.138
-132.697
-135.904
-138.788
-141.376
-143.697
-145.776
-147.641
-149.317
-150.83
-152.205
-153.468
-154.647
-155.769
-156.861
-157.946
-159.044
-160.171
-161.341
-162.561
-163.833
-165.151
-166.506
-167.894
-169.307
-170.737
-172.177
-173.616
-175.047
-176.467
-177.871
-179.253
-180.597
-181.885
-183.097
-184.219
-185.234
-186.127
-186.881
-187.469
-187.876
-188.1
-188.126
-187.942
-187.51
-186.759
-185.632
-184.091
-182.102
-179.646
-176.716
-173.305
-169.47
-165.327
-161.001
-156.64
-152.343
-148.151
-144.119
-140.289
-136.711
-133.476
-130.635
-128.227
-126.323
-124.967
-124.166
-123.906
-124.017
-124.218
-124.165
-123.349
-121.39
-118.143
-113.649
-108.28
-102.489
-96.567
-90.96
-86.312
-82.902
-80.625
-78.598
-74.993
-68.219
-56.975
-39.829
-15.677
16.177
54.052
92.759
126.238
148.757
160.357
166.701
170.27
171.05
157.39
107.518
7.379
-151.651
-358.604
-579.353
-779.971
-925.25
-992.648
-986.664
-917.604
-802.192
-664.705
-518.011
-378.065
-266.289
-188.87
-148.96
-140.699
-142.77
-143.892
-139.867
-131.221
-128.687
-136.706
-152.494
-171.951
-188.063
-197.241
-200.139
-197.651
-190.971
-181.065
-168.51
-154.423
-140.35
-127.209
-115.188
-104.203
-93.963
-84.205
-74.777
-65.356
-55.436
-44.765
-33.331
-21.233
-8.721
4.02
16.899
29.776
42.543
55.174
67.67
80.082
92.492
104.947
117.482
130.139
142.916
155.797
168.764
181.783
194.827
207.879
220.913
233.9
246.807
259.588
272.201
284.597
296.721
308.516
319.923
330.882
341.343
351.263
360.598
369.309
377.359
384.711
391.332
397.196
402.273
406.533
409.95
412.498
414.16
414.921
414.774
413.714
411.744
408.872
405.113
400.488
395.023
388.747
381.695
373.904
365.417
356.28
346.541
336.254
325.474
314.258
302.664
290.753
278.586
266.223
253.724
241.147
228.548
215.983
203.505
191.166
179.015
167.1
155.466
144.159
133.217
122.68
112.58
102.947
93.806
85.175
77.072
69.504
62.476
55.989
50.038
44.616
39.714
35.316
31.407
27.965
24.968
22.39
20.204
18.38
16.885
15.687
14.754
14.054
13.558
13.235
13.057
12.998
13.03
13.129
13.267
13.42
13.56
13.665
13.712
13.684
13.564
13.339
13
12.545
11.981
11.315
10.556
9.712
8.789
7.799
6.753
5.657
4.512
3.314
2.063
0.767
-0.56
-1.9
-3.234
-4.55
-5.839
-7.093
-8.296
-9.441
-10.53
-11.564
-12.538
-13.419
-14.141
-14.634
-14.842
-14.72
-14.242
-13.41
-12.237
-10.78
-9.138
-7.394
-5.637
-3.947
-2.379
-1.002
0.125
0.962
1.45
1.464
0.833
-0.522
-2.505
-4.771
-6.939
-8.796
-10.257
-11.19
-11.217
-10.166
-8.48
-7.341
-8.113
-11.419
-17.062
-24.538
-33.594
-43.729
-53.358
-59.47
-58.65
-48.896
-29.443
-0.151
38.436
85.334
136.5
184.132
222.29
247.136
257.826
257.287
242.34
206.502
144.052
47.544
-83.601
-244.475
-424.64
-604.428
-758.051
-858.629
-893.21
-862.774
-782.379
-676.463
-557.118
-432.059
-309.591
-197.499
-112.135
-66.122
-58.078
-74.851
-99.249
-118.858
-130.774
-141.374
-154.879
-170.068
-183.818
-191.105
-189.801
-181.644
-168.757
-153.084
-136.559
-120.61
-106.038
-93.432
-82.816
-73.647
-65.42
-57.742
-50.071
-41.883
-32.936
-23.108
-12.452
-1.198
10.507
22.552
34.795
47.098
59.358
71.53
83.635
95.734
107.867
120.047
132.278
144.569
156.943
169.405
181.934
194.499
207.054
219.566
232.007
244.345
256.552
268.589
280.415
291.987
303.26
314.186
324.716
334.799
344.377
353.398
361.819
369.595
376.692
383.074
388.708
393.564
397.617
400.84
403.209
404.702
405.298
404.984
403.753
401.601
398.532
394.556
389.687
383.948
377.364
369.967
361.791
352.875
343.26
332.994
322.126
310.708
298.798
286.454
273.736
260.704
247.42
233.945
220.339
206.664
192.977
179.336
165.796
152.413
139.238
126.32
113.707
101.442
89.565
78.112
67.115
56.602
46.597
37.118
28.182
19.8
11.981
4.726
-1.963
-8.092
-13.671
-18.713
-23.233
-27.253
-30.798
-33.894
-36.57
-38.855
-40.778
-42.372
-43.668
-44.699
-45.498
-46.097
-46.53
-46.828
-47.025
-47.153
-47.24
-47.311
-47.388
-47.492
-47.641
-47.85
-48.135
-48.506
-48.976
-49.556
-50.259
-51.092
-52.06
-53.162
-54.399
-55.764
-57.246
-58.83
-60.495
-62.219
-63.984
-65.774
-67.569
-69.354
-71.111
-72.826
-74.496
-76.113
-77.665
-79.136
-80.507
-81.762
-82.889
-83.88
-84.723
-85.406
-85.913
-86.24
-86.397
-86.386
-86.197
-85.799
-85.131
-84.145
-82.818
-81.137
-79.094
-76.69
-73.951
-70.956
-67.847
-64.776
-61.863
-59.184
-56.768
-54.647
-52.845
-51.413
-50.415
-49.906
-49.943
-50.577
-51.849
-53.75
-56.193
-58.977
-61.788
-64.209
-65.761
-66.158
-65.334
-63.462
-61.021
-58.359
-55.616
-53.173
-51.607
-51.106
-51.374
-51.35
-49.249
-43.999
-35.131
-21.605
-2.313
23.063
52.035
78.719
96.845
103.29
102.47
101.616
103.888
105.452
88.04
30.985
-79.058
-245.173
-444.365
-643.472
-808.011
-904.781
-927.876
-884.706
-789.589
-669.322
-538.958
-410.255
-299.983
-214.684
-159.176
-134.234
-126.917
-125.385
-123.791
-120.506
-121.312
-131.082
-148.451
-168.253
-184.299
-193.262
-194.888
-190.568
-182.229
-170.744
-157.114
-143.182
-130.106
-118.504
-108.628
-99.995
-92.143
-84.888
-77.8
-70.298
-62.086
-53.025
-43.148
-32.724
-21.948
-10.929
0.16
11.162
22.001
32.656
43.163
53.608
64.044
74.496
84.998
95.585
106.273
117.065
127.946
138.888
149.87
160.876
171.89
182.888
193.839
204.706
215.447
226.02
236.377
246.471
256.248
265.653
274.638
283.158
291.171
298.637
305.521
311.786
317.4
322.332
326.554
330.035
332.746
334.661
335.757
336.018
335.431
333.988
331.687
328.531
324.531
319.7
314.06
307.632
300.444
292.527
283.919
274.659
264.791
254.363
243.424
232.026
220.224
208.072
195.626
182.942
170.076
157.082
144.016
130.932
117.884
104.922
92.097
79.455
67.043
54.903
43.074
31.594
20.494
9.806
-0.445
-10.234
-19.543
-28.355
-36.66
-44.45
-51.723
-58.48
-64.727
-70.474
-75.736
-80.528
-84.869
-88.779
-92.279
-95.393
-98.145
-100.562
-102.671
-104.498
-106.074
-107.427
-108.587
-109.584
-110.443
-111.189
-111.842
-112.425
-112.957
-113.456
-113.938
-114.42
-114.918
-115.448
-116.023
-116.653
-117.346
-118.106
-118.934
-119.828
-120.778
-121.766
-122.773
-123.779
-124.764
-125.712
-126.604
-127.423
-128.156
-128.801
-129.357
-129.825
-130.198
-130.462
-130.596
-130.589
-130.435
-130.133
-129.685
-129.085
-128.339
-127.464
-126.474
-125.373
-124.141
-122.712
-121.017
-119.012
-116.651
-113.917
-110.823
-107.365
-103.591
-99.588
-95.418
-91.169
-86.915
-82.679
-78.513
-74.48
-70.62
-67.058
-63.999
-61.5
-59.527
-57.903
-56.212
-54.098
-51.334
-47.687
-42.884
-36.897
-30.146
-23.602
-18.839
-17.44
-20.374
-27.837
-39.708
-55.418
-73.372
-91.046
-104.892
-110.865
-105.783
-88.029
-56.749
-11.769
43.664
103.228
159.996
205.628
238.164
263.036
281.45
292.816
286.616
240.598
141.118
-19.132
-231.597
-464.741
-685.08
-856.38
-952.591
-973.381
-929.625
-841.573
-729.247
-601.105
-462.584
-322.275
-196.086
-101.887
-50.714
-41.681
-57.589
-77.067
-88.299
-85.79
-73.522
-62.802
-56.277
-54.319
-57.54
-59.309
-57.093
-51.623
-41.615
-30.037
-20.029
-11.818
-5.971
-2.258
0.387
2.263
3.486
4.622
6.307
8.891
12.684
17.952
24.664
32.775
42.231
52.71
63.798
75.207
86.722
98.195
109.594
120.881
132.01
143.018
153.951
164.826
175.601
186.149
196.337
206.095
215.403
224.302
232.876
241.179
249.253
257.152
264.898
272.491
279.914
287.103
293.972
300.456
306.511
312.114
317.254
321.907
326.042
329.625
332.62
334.994
336.711
337.725
337.995
337.493
336.199
334.108
331.227
327.56
323.115
317.908
311.955
305.275
297.891
289.827
281.104
271.754
261.811
251.314
240.307
228.835
216.947
204.694
192.127
179.302
166.273
153.092
139.814
126.49
113.172
99.91
86.754
73.748
60.941
48.378
36.101
24.153
12.572
1.394
-9.35
-19.63
-29.423
-38.71
-47.478
-55.716
-63.418
-70.581
-77.206
-83.296
-88.858
-93.903
-98.443
-102.493
-106.074
-109.207
-111.916
-114.226
-116.165
-117.764
-119.051
-120.056
-120.808
-121.334
-121.659
-121.81
-121.811
-121.688
-121.467
-121.173
-120.832
-120.471
-120.112
-119.776
-119.481
-119.241
-119.065
-118.955
-118.909
-118.923
-118.99
-119.105
-119.262
-119.457
-119.684
-119.936
-120.214
-120.515
-120.835
-121.168
-121.499
-121.814
-122.1
-122.346
-122.542
-122.675
-122.732
-122.691
-122.548
-122.29
-121.899
-121.348
-120.578
-119.531
-118.168
-116.453
-114.366
-111.904
-109.063
-105.867
-102.405
-98.783
-95.119
-91.54
-88.111
-84.891
-81.936
-79.297
-77.049
-75.248
-73.915
-73.083
-72.786
-72.998
-73.693
-74.77
-75.976
-77.062
-77.637
-77.131
-75.221
-71.831
-67.045
-61.27
-54.89
-48.069
-41.333
-35.612
-31.225
-27.813
-24.462
-19.412
-10.97
1.877
20.546
47.176
80.521
115.875
149.169
174.458
192.278
211.885
233.538
253.048
258.193
222.275
132.575
-12.588
-208.207
-426.848
-641.174
-826.206
-952.294
-1006.993
-991.503
-912.675
-789.218
-642.762
-487.499
-340.904
-221.833
-136.214
-87.237
-68.908
-61.867
-56.499
-49.469
-41.58
-42.473
-55.167
-75.545
-98.691
-117.673
-129.043
-133.624
-132.409
-126.406
-116.703
-104.269
-90.523
-77.275
-65.513
-55.299
-46.506
-38.812
-31.877
-25.496
-19.196
-12.281
-4.373
4.67
14.76
25.492
36.583
47.882
59.188
70.401
81.463
92.288
102.914
113.461
124.002
134.626
145.364
156.144
166.897
177.548
188.055
198.461
208.789
219.029
229.181
239.22
249.13
258.921
268.56
277.966
287.066
295.78
304.045
311.838
319.127
325.871
332.033
337.563
342.417
346.564
349.969
352.593
354.395
355.332
355.376
354.517
352.747
350.061
346.457
341.937
336.509
330.194
323.014
314.99
306.15
296.525
286.153
275.08
263.353
251.025
238.151
224.789
211.002
196.852
182.405
167.725
152.879
137.932
122.95
107.998
93.141
78.441
63.959
49.754
35.883
22.399
9.351
-3.216
-15.263
-26.752
-37.652
-47.936
-57.581
-66.571
-74.892
-82.534
-89.494
-95.772
-101.377
-106.318
-110.613
-114.283
-117.353
-119.851
-121.809
-123.261
-124.24
-124.784
-124.932
-124.726
-124.206
-123.415
-122.397
-121.197
-119.858
-118.424
-116.935
-115.425
-113.928
-112.476
-111.097
-109.817
-108.66
-107.649
-106.804
-106.147
-105.693
-105.458
-105.448
-105.669
-106.119
-106.792
-107.676
-108.75
-109.994
-111.388
-112.912
-114.546
-116.271
-118.065
-119.913
-121.802
-123.714
-125.633
-127.536
-129.394
-131.179
-132.87
-134.444
-135.884
-137.174
-138.285
-139.201
-139.92
-140.43
-140.717
-140.746
-140.446
-139.762
-138.667
-137.136
-135.165
-132.761
-129.927
-126.727
-123.283
-119.723
-116.193
-112.796
-109.567
-106.547
-103.787
-101.338
-99.303
-97.764
-96.746
-96.294
-96.447
-97.219
-98.614
-100.516
-102.657
-104.653
-106.012
-106.375
-105.629
-103.817
-101.179
-98.001
-94.463
-91.036
-88.529
-87.394
-87.564
-88.38
-88.496
-86.468
-81.088
-70.823
-53.636
-29.967
-3.138
23.274
44.198
60.151
78.407
99.495
121.084
131.96
106.687
32.335
-97.597
-282.49
-494.371
-706.31
-889.346
-1007.013
-1051.914
-1031.067
-958.764
-866.192
-769.04
-666.946
-562.367
-454.462
-348.866
-263.009
-204.768
-170.811
-154.687
-143.983
-132.935
-125.772
-124.848
-131.389
-143.094
-153.41
-159.125
-159.993
-156.676
-150.792
-143.155
-133.899
-123.927
-114.619
-106.723
-100.348
-95.245
-90.883
-86.816
-82.784
-78.247
-72.385
-64.738
-55.131
-43.539
-30.263
-15.594
0.197
16.647
33.357
50.114
66.756
83.248
99.636
115.881
131.952
147.852
163.473
178.721
193.523
207.76
221.392
234.442
246.953
259.033
270.782
282.236
293.41
304.3
314.863
325.064
334.847
344.129
352.858
361.004
368.537
375.449
381.719
387.311
392.19
396.318
399.648
402.143
403.773
404.51
404.339
403.258
401.272
398.399
394.661
390.08
384.677
378.479
371.511
363.805
355.392
346.306
336.584
326.271
315.416
304.069
292.287
280.124
267.639
254.891
241.94
228.843
215.658
202.439
189.243
176.122
163.129
150.314
137.726
125.413
113.42
101.789
90.56
79.764
69.432
59.587
50.25
41.435
33.155
25.418
18.23
11.592
5.504
-0.035
-5.034
-9.504
-13.461
-16.924
-19.917
-22.467
-24.603
-26.357
-27.764
-28.855
-29.665
-30.225
-30.572
-30.739
-30.761
-30.674
-30.51
-30.306
-30.095
-29.912
-29.787
-29.748
-29.818
-30.017
-30.363
-30.87
-31.553
-32.424
-33.492
-34.766
-36.257
-37.971
-39.912
-42.082
-44.476
-47.085
-49.891
-52.871
-55.996
-59.24
-62.579
-65.985
-69.436
-72.907
-76.382
-79.853
-83.314
-86.756
-90.157
-93.486
-96.713
-99.82
-102.793
-105.626
-108.306
-110.815
-113.138
-115.277
-117.242
-119.036
-120.632
-121.966
-122.955
-123.531
-123.672
-123.386
-122.66
-121.477
-119.824
-117.703
-115.235
-112.585
-109.884
-107.241
-104.677
-102.145
-99.723
-97.595
-95.851
-94.513
-93.365
-91.939
-90.123
-88.123
-86.079
-84.128
-82.249
-80.217
-78.496
-78.273
-80.211
-84.508
-90.93
-98.489
-106.443
-114.653
-122.116
-126.882
-127.257
-121.563
-108.828
-89.742
-65.289
-35.551
-1.107
35.968
73.285
106.297
128.209
136.299
130.065
109.385
80.365
44.876
-2.916
-68.036
-162.613
-295.497
-458.347
-635.177
-800.008
-921.965
-983.866
-981.123
-918.23
-812.284
-684.484
-552.843
-436.273
-346.464
-283.175
-241.594
-210.806
-181.01
-150.27
-121
-99.857
-91.438
-95.35
-108.224
-123.635
-136.814
-146.192
-151.419
-153.21
-152.182
-148.283
-141.789
-133.891
-126.055
-119.19
-113.639
-109.254
-105.618
-102.411
-99.349
-95.826
-91.026
-84.445
-75.867
-65.342
-53.209
-39.819
-25.518
-10.668
4.432
19.603
34.755
49.864
64.976
80.109
95.276
110.454
125.524
140.369
154.89
169.021
182.76
196.156
209.287
222.219
235.006
247.67
260.2
272.568
284.716
296.57
308.035
319.037
329.531
339.483
348.867
357.652
365.794
373.246
379.958
385.884
390.972
395.177
398.457
400.785
402.145
402.533
401.958
400.43
397.963
394.574
390.282
385.11
379.085
372.236
364.594
356.197
347.09
337.321
326.947
316.027
304.621
292.793
280.607
268.131
255.429
242.569
229.614
216.629
203.676
190.817
178.114
165.624
153.402
141.503
129.975
118.865
108.215
98.062
88.44
79.376
70.894
63.015
55.755
49.124
43.13
37.776
33.06
28.976
25.512
22.65
20.369
18.643
17.444
16.741
16.502
16.691
17.271
18.204
19.45
20.97
22.724
24.67
26.768
28.975
31.254
33.57
35.888
38.177
40.408
42.552
44.582
46.476
48.208
49.757
51.102
52.225
53.111
53.748
54.129
54.254
54.132
53.779
53.212
52.445
51.497
50.384
49.124
47.734
46.226
44.6
42.862
41.023
39.101
37.128
35.13
33.115
31.095
29.072
27.056
25.073
23.134
21.235
19.384
17.595
15.918
14.451
13.271
12.424
11.936
11.796
12.008
12.593
13.539
14.797
16.281
17.851
19.403
20.873
22.215
23.439
24.463
25.08
25.211
24.89
24.336
24.035
24.217
24.773
25.665
26.887
28.453
30.606
32.928
34.136
33.426
30.442
25.348
19.198
12.651
5.582
-1.08
-5.18
-4.573
3.081
18.715
41.414
71.156
108.561
152.854
200.049
243.192
274.825
290.882
295.767
296.178
294.065
285.917
255.269
183.267
60.651
-113.593
-320.174
-527.594
-705.615
-824.495
-870.159
-845.799
-760.159
-630.497
-478.289
-318.854
-172.437
-61.155
8.344
34.215
26.724
11.259
0.396
-1.667
4.089
5.749
-0.804
-11.109
-21.285
-25.992
-22.853
-13.886
-1.068
14.514
31.487
48.283
64.116
78.432
91.009
102.446
113.204
123.404
133.489
144.026
155.257
167.348
180.275
193.736
207.576
221.706
235.969
250.23
264.363
278.293
292.036
305.654
319.198
332.696
346.162
359.61
373.078
386.583
400.119
413.674
427.208
440.696
454.123
467.465
480.702
493.808
506.744
519.473
531.957
544.153
556.017
567.501
578.551
589.117
599.155
608.626
617.494
625.724
633.282
640.138
646.264
651.632
656.215
659.986
662.92
664.996
666.2
666.522
665.957
664.506
662.175
658.975
654.924
650.044
644.359
637.897
630.692
622.779
614.197
604.992
595.211
584.902
574.118
562.914
551.345
539.47
527.345
515.026
502.568
490.024
477.447
464.887
452.39
440.001
427.763
415.716
403.902
392.354
381.108
370.191
359.631
349.451
339.669
330.302
321.361
312.852
304.779
297.144
289.945
283.178
276.836
270.907
265.379
260.236
255.46
251.028
246.92
243.108
239.569
236.281
233.224
230.38
227.734
225.276
222.998
220.9
218.978
217.229
215.649
214.237
212.995
211.921
211.012
210.257
209.65
209.188
208.876
208.726
208.745
208.944
209.339
209.956
210.833
212.007
213.506
215.34
217.521
220.075
223.043
226.485
230.44
234.913
239.898
245.383
251.339
257.715
264.407
271.231
277.987
284.513
290.7
296.506
301.913
306.868
311.291
315.089
318.198
320.6
322.259
323.083
323.01
322.062
320.391
318.407
316.619
315.325
314.637
314.416
314.188
313.448
311.774
308.575
303.266
295.544
285.322
273.453
261.95
253.049
248.978
249.371
250.472
248.763
241.263
232.255
233.482
251.322
285.237
315.798
306.745
230.323
72.591
-149.989
-393
-611.652
-768.507
-850.49
-867.618
-837.709
-780.298
-705.32
-618.888
-525.519
-433.5
-361.69
-324.722
-336.542
-405.972
-526.706
-694.885
-901.333
-1125.08
-1346.032
-1534.175
-1658.5
-1707.122
-1682.448
-1602.225
-1495.857
-1387.429
-1288.218
-1201.423
-1124.019
-1048.794
-976.26
-910.846
-855.119
-814.7
-790.89
-780.838
-782.262
-790.627
-801.414
-811.034
-816.889
-818.338
-815.501
-809.131
-800.296
-789.546
-777.912
-766.981
-757.402
-749.426
-743.081
-737.709
-732.787
-727.942
-722.4
-715.368
-706.425
-695.302
-682.011
-666.811
-649.865
-631.428
-611.866
-591.547
-570.876
-550.109
-529.327
-508.585
-487.918
-467.386
-447.133
-427.253
-407.77
-388.74
-370.199
-352.18
-334.747
-317.878
-301.497
-285.525
-269.858
-254.437
-239.272
-224.373
-209.762
-195.483
-181.562
-168.051
-155.032
-142.568
-130.705
-119.489
-108.95
-99.136
-90.115
-81.955
-74.719
-68.464
-63.231
-59.056
-55.973
-54
-53.142
-53.394
-54.739
-57.158
-60.633
-65.142
-70.658
-77.148
-84.57
-92.881
-102.032
-111.967
-122.623
-133.932
-145.821
-158.212
-171.03
-184.194
-197.626
-211.241
-224.96
-238.701
-252.383
-265.928
-279.255
-292.288
-304.952
-317.177
-328.897
-340.05
-350.581
-360.438
-369.576
-377.956
-385.546
-392.317
-398.244
-403.311
-407.505
-410.823
-413.265
-414.838
-415.556
-415.438
-414.511
-412.807
-410.363
-407.216
-403.409
-398.985
-393.994
-388.486
-382.51
-376.121
-369.373
-362.321
-355.023
-347.534
-339.908
-332.195
-324.441
-316.689
-308.979
-301.35
-293.836
-286.468
-279.277
-272.29
-265.536
-259.037
-252.81
-246.866
-241.212
-235.849
-230.772
-225.968
-221.417
-217.097
-212.991
-209.079
-205.34
-201.754
-198.297
-194.951
-191.702
-188.536
-185.432
-182.362
-179.294
-176.201
-173.061
-169.854
-166.557
-163.15
-159.607
-155.913
-152.069
-148.069
-143.901
-139.527
-134.879
-129.906
-124.581
-118.892
-112.828
-106.397
-99.618
-92.572
-85.412
-78.295
-71.352
-64.67
-58.285
-52.237
-46.565
-41.329
-36.606
-32.466
-28.99
-26.254
-24.332
-23.249
-22.934
-23.2
-23.733
-24.102
-23.814
-22.571
-20.309
-17.236
-13.881
-10.678
-7.856
-5.855
-5.27
-6.248
-8.337
-10.23
-9.798
-5.509
3.483
18.388
40.349
69.482
103.114
135.338
159.442
171.22
173.009
169.514
162.363
148.517
113.49
41.26
-78.088
-247.561
-448.13
-650.462
-822.251
-929.981
-963.721
-928.858
-839.211
-719.233
-584.931
-446.791
-319.808
-217.509
-148.811
-118.536
-117.879
-126.507
-131.989
-129.054
-119.361
-113.556
-115.393
-121.255
-127.427
-129.18
-124.909
-116.667
-106.28
-94.605
-82.523
-71.208
-61.262
-53.055
-46.661
-41.396
-36.657
-32.232
-27.709
-22.503
-16.317
-8.828
0.243
10.758
22.587
35.555
49.267
63.426
77.835
92.313
106.771
121.18
135.485
149.689
163.859
178.007
192.131
206.161
219.931
233.345
246.361
258.982
271.279
283.29
295.015
306.474
317.691
328.66
339.367
349.751
359.709
369.16
378.045
386.319
393.963
400.948
407.23
412.769
417.525
421.457
424.536
426.722
427.969
428.242
427.519
425.792
423.071
419.364
414.682
409.041
402.467
394.988
386.64
377.456
367.47
356.725
345.27
333.157
320.446
307.2
293.483
279.365
264.916
250.21
235.32
220.319
205.277
190.264
175.351
160.606
146.095
131.88
118.024
104.583
91.616
79.174
67.305
56.05
45.446
35.524
26.308
17.82
10.072
3.074
-3.169
-8.657
-13.391
-17.378
-20.631
-23.167
-25.006
-26.176
-26.705
-26.627
-25.98
-24.805
-23.143
-21.037
-18.527
-15.657
-12.471
-9.012
-5.323
-1.45
2.568
6.688
10.868
15.068
19.254
23.391
27.452
31.411
35.246
38.939
42.472
45.831
49.003
51.978
54.745
57.296
59.628
61.738
63.627
65.301
66.771
68.054
69.178
70.167
71.043
71.83
72.547
73.216
73.855
74.474
75.072
75.651
76.213
76.772
77.352
77.971
78.631
79.334
80.076
80.849
81.661
82.509
83.368
84.23
85.097
86.007
87.039
88.265
89.727
91.447
93.419
95.636
98.107
100.802
103.664
106.62
109.545
112.344
114.967
117.352
119.485
121.289
122.531
123.099
123.053
122.556
122.044
121.896
122.052
122.503
123.427
124.697
126.19
127.44
126.953
123.383
116.38
105.976
92.702
77.71
61.786
46.28
34.38
29.276
32.997
46.996
71.597
106.159
150.285
200.826
250.718
293.344
324.169
344.36
358.711
368.039
367.499
342.811
279.108
168.643
9.542
-183.961
-388.916
-579.729
-723.35
-797.898
-798.79
-733.61
-628.698
-514.211
-406.597
-313.243
-231.714
-153.713
-79.383
-14.805
34.543
64.291
74.779
70.732
57.339
38.571
18.293
0.567
-12.225
-19.044
-19.848
-15.981
-8.993
0.275
10.687
20.551
28.899
35.228
39.393
42.016
43.749
44.955
46.139
47.944
50.742
54.861
60.6
67.868
76.488
86.246
96.716
107.561
118.628
129.792
140.981
152.196
163.408
174.63
185.965
197.455
209.082
220.762
232.322
243.653
254.718
265.527
276.144
286.602
296.892
307.023
317.009
326.842
336.492
345.892
354.925
363.5
371.553
379.039
385.933
392.201
397.789
402.652
406.74
410.011
412.427
413.94
414.497
414.059
412.599
410.109
406.592
402.058
396.513
389.977
382.473
374.032
364.693
354.494
343.475
331.684
319.178
306.018
292.272
278.011
263.308
248.241
232.89
217.336
201.662
185.949
170.277
154.727
139.379
124.309
109.593
95.301
81.502
68.261
55.638
43.691
32.468
22.015
12.37
3.566
-4.37
-11.418
-17.567
-22.81
-27.15
-30.593
-33.153
-34.85
-35.712
-35.775
-35.075
-33.656
-31.562
-28.844
-25.556
-21.755
-17.497
-12.843
-7.854
-2.594
2.874
8.483
14.171
19.877
25.546
31.122
36.555
41.796
46.8
51.526
55.934
59.986
63.648
66.889
69.684
72.013
73.865
75.233
76.117
76.525
76.476
75.988
75.084
73.782
72.108
70.084
67.74
65.101
62.186
59.019
55.626
52.041
48.304
44.454
40.524
36.55
32.567
28.612
24.73
20.954
17.305
13.808
10.491
7.405
4.629
2.231
0.257
-1.252
-2.272
-2.786
-2.782
-2.307
-1.477
-0.415
0.739
1.888
2.998
4.021
4.926
5.672
6.187
6.42
6.335
5.87
4.984
3.687
1.995
0.059
-1.842
-3.347
-3.907
-3.133
-0.924
2.599
7.004
11.875
17.006
21.985
26.112
29.118
31.333
33.889
38.821
47.661
61.301
80.93
107.605
141.563
180.382
218.515
249.695
269.743
280.31
285.279
285.482
277.369
247.855
183.377
75.64
-78.207
-261.523
-449.026
-610.838
-712.443
-743.43
-710.867
-631.715
-536.455
-439.961
-341.441
-242.855
-143.859
-51.012
18.144
57.794
73.803
73.523
69.631
68.2
65.176
59.474
51.602
43.083
38.476
39.68
45.741
55.467
67.324
79.892
91.905
102.514
111.222
117.861
122.9
126.883
130.186
133.341
136.927
141.266
146.609
153.167
160.936
169.855
179.771
190.339
201.236
212.253
223.268
234.24
245.136
255.909
266.55
277.104
287.635
298.18
308.707
319.101
329.235
339.04
348.516
357.72
366.686
375.42
383.916
392.174
400.21
408.022
415.562
422.743
429.478
435.695
441.352
446.426
450.89
454.708
457.84
460.245
461.89
462.748
462.787
461.968
460.252
457.612
454.035
449.526
444.09
437.736
430.473
422.319
413.3
403.448
392.794
381.369
369.21
356.359
342.866
328.786
314.175
299.092
283.599
267.762
251.648
235.324
218.856
202.312
185.756
169.251
152.862
