Name
Date of Birth,"Mar 15, 1999"
Recorded Date,2022-06-16 16:36:41 -0700
Classification,Sinus Rhythm
Symptoms,
Software Version,1.90
Device,"Watch4,1"
Sample Rate,513.656 hertz


Lead,Lead I
Unit,µV

33.859
36.701
39.318
41.633
43.588
45.105
46.08
46.483
46.379
45.919
45.331
44.759
44.242
43.864
43.803
44.201
45.012
45.831
45.966
44.919
42.546
38.851
33.794
27.236
19.272
10.791
3.292
-2.146
-4.892
-4.526
-0.921
7.47
22.246
42.422
67.135
93.774
118.246
140.276
158.642
172.959
187.722
205.828
229.117
255.649
272.731
261.544
205.017
93.779
-66.812
-255.707
-445.947
-611.97
-733.492
-800.246
-809.441
-762.468
-668.066
-543.064
-408.56
-288.701
-202.768
-154.966
-138.389
-137.938
-136.218
-126.109
-108.761
-89.807
-77.226
-73.18
-74.935
-78.628
-79.849
-77.044
-71.098
-63.115
-54.365
-45.752
-37.891
-31.58
-27.577
-26.141
-27.077
-30.019
-34.474
-39.953
-45.972
-51.957
-57.356
-61.854
-65.341
-67.802
-69.289
-69.836
-69.465
-68.26
-66.334
-63.792
-60.719
-57.166
-53.183
-48.856
-44.312
-39.691
-35.097
-30.589
-26.192
-21.923
-17.796
-13.814
-9.952
-6.162
-2.394
1.396
5.246
9.181
13.24
17.466
21.909
26.618
31.624
36.94
42.568
48.507
54.748
61.277
68.066
75.077
82.277
89.634
97.118
104.7
112.346
120.018
127.679
135.29
142.815
150.22
157.468
164.524
171.356
177.932
184.222
190.199
195.834
201.097
205.963
210.403
214.394
217.913
220.94
223.456
225.445
226.895
227.797
228.144
227.932
227.159
225.828
223.942
221.509
218.537
215.038
211.027
206.519
201.534
196.091
190.212
183.923
177.247
170.212
162.846
155.177
147.237
139.056
130.663
122.093
113.374
104.54
95.622
86.65
77.654
68.664
59.709
50.815
42.011
33.318
24.763
16.365
8.145
0.123
-7.684
-15.262
-22.595
-29.672
-36.48
-43.011
-49.256
-55.209
-60.864
-66.217
-71.265
-76.007
-80.442
-84.57
-88.394
-91.915
-95.137
-98.064
-100.701
-103.053
-105.128
-106.93
-108.468
-109.749
-110.78
-111.569
-112.124
-112.453
-112.564
-112.467
-112.169
-111.678
-111.004
-110.155
-109.138
-107.962
-106.634
-105.162
-103.555
-101.819
-99.964
-97.996
-95.924
-93.756
-91.5
-89.164
-86.757
-84.286
-81.76
-79.186
-76.572
-73.927
-71.258
-68.573
-65.88
-63.188
-60.504
-57.837
-55.195
-52.584
-50.012
-47.486
-45.013
-42.598
-40.248
-37.968
-35.763
-33.641
-31.608
-29.667
-27.824
-26.084
-24.45
-22.926
-21.515
-20.217
-19.033
-17.963
-17.008
-16.17
-15.446
-14.838
-14.344
-13.962
-13.694
-13.537
-13.488
-13.541
-13.69
-13.929
-14.252
-14.651
-15.117
-15.64
-16.212
-16.827
-17.477
-18.153
-18.842
-19.531
-20.211
-20.869
-21.496
-22.081
-22.608
-23.071
-23.465
-23.791
-24.052
-24.25
-24.376
-24.423
-24.39
-24.268
-24.046
-23.701
-23.196
-22.505
-21.62
-20.531
-19.239
-17.738
-16.007
-14.041
-11.847
-9.427
-6.793
-3.945
-0.866
2.412
5.812
9.233
12.518
15.542
18.243
20.508
22.207
23.312
23.841
23.93
23.881
23.86
23.898
24.117
24.583
25.213
25.895
26.244
25.649
23.904
21.129
17.445
13.22
9.02
5.409
3.38
4.239
8.618
16.35
27.21
40.808
56.452
74.682
95.74
117.894
140.947
163.642
183.149
200.176
213.964
224.393
236.272
252.943
276.896
306.982
331.711
332.207
288.58
187.781
31.488
-160.16
-354.284
-518.577
-629.34
-677.271
-671.024
-623.921
-547.88
-456.954
-358.237
-260.694
-179.396
-119.662
-83.231
-65.478
-51.59
-34.556
-13.309
10.022
27.37
35.577
36.664
33.428
30.273
29.765
31.74
35.63
40.738
46.371
52.009
57.098
60.902
62.688
62.268
59.833
55.653
50.216
44.052
37.562
31.225
25.53
20.698
16.825
13.94
11.948
10.768
10.353
10.59
11.361
12.583
14.15
15.971
17.963
19.985
21.928
23.722
25.309
26.67
27.804
28.705
29.397
29.927
30.34
30.688
31.018
31.363
31.775
32.307
33.021
33.982
35.241
36.827
38.762
41.06
43.722
46.746
50.12
53.815
57.807
62.074
66.594
71.347
76.307
81.444
86.724
92.113
97.579
103.09
108.612
114.113
119.558
124.917
130.16
135.258
140.181
144.896
149.372
153.575
157.477
161.046
164.255
167.077
169.486
171.461
172.982
174.034
174.601
174.671
174.234
173.286
171.821
169.839
167.342
164.335
160.825
156.824
152.343
147.399
142.009
136.194
129.975
123.377
116.426
109.151
101.579
93.743
85.673
77.403
68.968
60.4
51.735
43.007
34.251
25.501
16.79
8.151
-0.384
-8.786
-17.024
-25.072
-32.903
-40.494
-47.822
-54.867
-61.611
-68.038
-74.133
-79.886
-85.286
-90.328
-95.005
-99.317
-103.261
-106.84
-110.059
-112.922
-115.439
-117.619
-119.474
-121.017
-122.263
-123.229
-123.931
-124.389
-124.622
-124.648
-124.49
-124.168
-123.702
-123.114
-122.425
-121.657
-120.828
-119.961
-119.073
-118.184
-117.31
-116.47
-115.677
-114.946
-114.292
-113.725
-113.256
-112.894
-112.647
-112.521
-112.521
-112.649
-112.906
-113.293
-113.807
-114.446
-115.206
-116.082
-117.068
-118.156
-119.34
-120.609
-121.956
-123.371
-124.843
-126.362
-127.918
-129.499
-131.096
-132.699
-134.297
-135.881
-137.443
-138.974
-140.467
-141.913
-143.307
-144.643
-145.914
-147.117
-148.249
-149.307
-150.292
-151.204
-152.044
-152.817
-153.525
-154.174
-154.769
-155.317
-155.825
-156.3
-156.751
-157.186
-157.617
-158.052
-158.502
-158.978
-159.49
-160.051
-160.67
-161.359
-162.127
-162.98
-163.926
-164.97
-166.118
-167.372
-168.736
-170.211
-171.802
-173.51
-175.337
-177.282
-179.342
-181.507
-183.77
-186.117
-188.537
-191.018
-193.544
-196.105
-198.695
-201.306
-203.939
-206.591
-209.243
-211.876
-214.465
-216.978
-219.39
-221.679
-223.821
-225.803
-227.615
-229.248
-230.704
-231.981
-233.068
-233.943
-234.564
-234.899
-234.952
-234.74
-234.303
-233.698
-232.954
-232.117
-231.256
-230.42
-229.662
-229.024
-228.498
-228.102
-227.884
-227.832
-227.914
-228.026
-227.936
-227.461
-226.445
-224.64
-221.878
-218.195
-213.785
-209.107
-204.712
-200.881
-197.818
-195.825
-195.098
-195.509
-196.466
-196.929
-195.986
-193.182
-188.172
-180.458
-169.444
-154.583
-135.778
-113.46
-87.668
-59.34
-31.504
-7.587
8.655
17.054
23.964
35.602
54.13
72.321
69.787
24.54
-77.329
-234.977
-426.37
-617.818
-777.172
-879.743
-916.817
-895.778
-828.427
-730.381
-618.973
-505.172
-401.622
-321.109
-267.116
-240.73
-237.394
-242.543
-245.191
-239.206
-220.495
-195.833
-174.913
-161.449
-158.612
-163.679
-169.06
-171.7
-170.092
-164.195
-156.886
-149.738
-143.117
-137.707
-133.764
-131.226
-130.172
-130.434
-131.508
-132.973
-134.528
-135.772
-136.336
-136.054
-134.831
-132.668
-129.707
-126.05
-121.771
-116.99
-111.817
-106.355
-100.707
-94.96
-89.21
-83.551
-78.056
-72.779
-67.75
-62.976
-58.466
-54.211
-50.18
-46.334
-42.627
-39.014
-35.462
-31.928
-28.365
-24.72
-20.935
-16.965
-12.782
-8.366
-3.703
1.212
6.383
11.803
17.452
23.313
29.367
35.6
41.995
48.536
55.196
61.95
68.77
75.631
82.507
89.374
96.202
102.967
109.64
116.198
122.617
128.871
134.93
140.768
146.354
151.661
156.662
161.331
165.641
169.568
173.091
176.19
178.846
181.044
182.769
184.01
184.755
185
184.737
183.967
182.687
180.902
178.616
175.838
172.577
168.846
164.659
160.032
154.984
149.536
143.71
137.53
131.021
124.21
117.127
109.801
102.262
94.541
86.671
78.682
70.608
62.479
54.328
46.186
38.083
30.049
22.112
14.3
6.64
-0.844
-8.127
-15.19
-22.01
-28.571
-34.854
-40.847
-46.535
-51.908
-56.957
-61.674
-66.054
-70.094
-73.792
-77.149
-80.167
-82.851
-85.207
-87.242
-88.965
-90.386
-91.517
-92.371
-92.961
-93.301
-93.407
-93.296
-92.983
-92.485
-91.821
-91.008
-90.062
-89.002
-87.844
-86.605
-85.301
-83.948
-82.561
-81.155
-79.743
-78.339
-76.955
-75.602
-74.291
-73.031
-71.831
-70.696
-69.633
-68.646
-67.74
-66.918
-66.181
-65.53
-64.966
-64.488
-64.095
-63.785
-63.555
-63.402
-63.321
-63.309
-63.359
-63.468
-63.629
-63.837
-64.085
-64.368
-64.68
-65.013
-65.362
-65.72
-66.08
-66.437
-66.783
-67.113
-67.423
-67.706
-67.958
-68.175
-68.354
-68.491
-68.583
-68.627
-68.621
-68.562
-68.449
-68.28
-68.053
-67.769
-67.426
-67.024
-66.563
-66.043
-65.465
-64.828
-64.132
-63.379
-62.571
-61.708
-60.792
-59.828
-58.816
-57.762
-56.668
-55.539
-54.378
-53.19
-51.978
-50.746
-49.499
-48.24
-46.974
-45.705
-44.437
-43.174
-41.921
-40.684
-39.469
-38.281
-37.123
-35.999
-34.913
-33.867
-32.863
-31.902
-30.985
-30.112
-29.285
-28.505
-27.776
-27.097
-26.466
-25.877
-25.324
-24.798
-24.292
-23.797
-23.302
-22.8
-22.285
-21.76
-21.23
-20.701
-20.163
-19.601
-18.997
-18.322
-17.559
-16.691
-15.695
-14.557
-13.267
-11.821
-10.222
-8.48
-6.588
-4.521
-2.242
0.281
3.047
6.022
9.157
12.379
15.634
18.878
22.037
25.04
27.834
30.367
32.621
34.625
36.374
37.811
38.922
39.729
40.371
41.134
42.308
44.125
46.752
50.303
54.761
60.03
65.846
71.711
77.11
81.552
84.754
86.745
87.842
88.521
89.366
91.209
94.975
101.653
112.208
127.346
147.367
172.574
201.895
231.986
259.439
280.567
294.777
307.708
323.265
341.509
356.867
351.282
307.481
216.85
76.917
-95.969
-274.704
-435.487
-552.674
-611.939
-616.785
-572.976
-492.708
-394.607
-288.699
-187.956
-108.973
-55.338
-28.181
-22.261
-20.909
-16.032
-5.787
8.646
19.321
23.009
22.146
19.86
20.198
24.792
32.653
42.526
53.14
63.603
73.042
80.382
85.056
86.952
86.308
83.642
79.396
73.939
67.832
61.744
56.131
51.258
47.219
43.953
41.452
39.754
38.837
38.634
39.073
40.072
41.574
43.557
45.969
48.729
51.731
54.83
57.922
60.954
63.887
66.714
69.427
72.015
74.497
76.917
79.322
81.761
84.275
86.891
89.649
92.597
95.79
99.289
103.135
107.349
111.944
116.925
122.289
128.033
134.139
140.577
147.316
154.331
161.595
169.086
176.774
184.622
192.596
200.656
208.767
216.893
224.997
233.041
240.99
248.807
256.457
263.91
271.129
278.08
284.727
291.034
296.969
302.498
307.59
312.216
316.349
319.963
323.038
325.555
327.498
328.853
329.609
329.759
329.298
328.224
326.538
324.244
321.349
317.862
313.797
309.169
303.995
298.296
292.093
285.413
278.283
270.731
262.788
254.485
245.858
236.941
227.77
218.386
208.822
199.115
189.304
179.425
169.516
159.618
149.76
139.974
130.302
120.782
111.451
102.346
93.486
84.879
76.561
68.567
60.882
53.497
46.408
39.595
33.092
26.954
21.158
15.656
10.576
6.07
2.04
-1.512
-4.567
-7.47
-9.338
-9.315
-8.663
-7.777
-8.966
-14.989
-22.835
-30.506
-35.015
-32.252
-25.895
-19.065
-13.908
-13.955
-16.718
-19.676
-22.282
-23.006
-22.764
-22.73
-22.698
-22.829
-23.056
-23.157
-23.292
-23.592
-24.02
-24.572
-25.264
-26.092
-27.047
-28.121
-29.286
-30.511
-31.799
-33.152
-34.558
-36.008
-37.49
-38.991
-40.504
-42.02
-43.525
-45.006
-46.451
-47.849
-49.188
-50.459
-51.651
-52.756
-53.765
-54.672
-55.471
-56.157
-56.728
-57.181
-57.516
-57.733
-57.834
-57.821
-57.7
-57.474
-57.15
-56.735
-56.237
-55.665
-55.027
-54.332
-53.592
-52.814
-52.01
-51.19
-50.363
-49.539
-48.728
-47.94
-47.183
-46.467
-45.8
-45.19
-44.644
-44.169
-43.769
-43.45
-43.215
-43.066
-43.005
-43.032
-43.145
-43.344
-43.625
-43.985
-44.42
-44.926
-45.496
-46.127
-46.813
-47.548
-48.326
-49.143
-49.992
-50.871
-51.776
-52.702
-53.646
-54.606
-55.581
-56.57
-57.57
-58.583
-59.606
-60.64
-61.685
-62.744
-63.818
-64.909
-66.019
-67.154
-68.317
-69.513
-70.748
-72.026
-73.352
-74.732
-76.171
-77.673
-79.241
-80.874
-82.573
-84.334
-86.152
-88.023
-89.939
-91.893
-93.879
-95.891
-97.923
-99.972
-102.028
-104.084
-106.133
-108.164
-110.167
-112.135
-114.058
-115.932
-117.762
-119.546
-121.281
-122.957
-124.549
-126.03
-127.377
-128.56
-129.545
-130.306
-130.817
-131.077
-131.102
-130.905
-130.491
-129.844
-128.947
-127.8
-126.423
-124.864
-123.189
-121.447
-119.697
-118.038
-116.506
-115.076
-113.654
-111.982
-109.819
-107.017
-103.382
-98.807
-93.465
-87.625
-81.727
-76.468
-72.308
-69.582
-68.815
-70.169
-73.263
-77.56
-82.112
-85.677
-87.383
-86.27
-81.026
-70.708
-54.798
-33.007
-5.491
25.736
57.055
84.946
105.326
118.996
132.038
146.467
161.615
167.891
145.435
81.908
-27.728
-176.972
-343.287
-503.983
-638.619
-731.355
-776.675
-776.401
-735.445
-661.12
-566.167
-461.495
-360.384
-279.376
-222.87
-190.472
-175.87
-163.913
-148.198
-128.296
-106.378
-90.118
-82.568
-81.65
-84.658
-87.545
-87.869
-85.837
-82.139
-77.459
-72.321
-67.12
-62.27
-58.352
-56.048
-55.504
-56.514
-58.813
-61.937
-65.433
-68.961
-72.102
-74.437
-75.773
-76.037
-75.228
-73.472
-70.873
-67.522
-63.551
-59.091
-54.263
-49.175
-43.928
-38.628
-33.378
-28.258
-23.327
-18.615
-14.133
-9.887
-5.872
-2.051
1.616
5.18
8.689
12.18
15.697
19.291
23.017
26.936
31.092
35.513
40.218
45.217
50.513
56.105
61.983
68.124
74.503
81.101
87.898
94.875
102.012
109.278
116.646
124.084
131.565
139.061
146.545
153.987
161.361
168.638
175.795
182.807
189.649
196.292
202.71
208.874
214.758
220.335
225.582
230.473
234.986
239.101
242.8
246.069
248.892
251.257
253.153
254.572
255.508
255.957
255.917
255.389
254.375
252.88
250.912
248.481
245.597
242.274
238.526
234.371
229.827
224.913
219.65
214.06
208.168
201.997
195.574
188.925
182.077
175.057
167.894
160.613
153.244
145.814
138.348
130.874
123.416
116.001
108.651
101.391
94.243
87.228
80.366
73.675
67.174
60.877
54.798
48.952
43.348
37.996
32.906
28.084
23.535
19.262
15.27
11.558
8.126
4.971
2.092
-0.518
-2.864
-4.953
-6.792
-8.391
-9.76
-10.909
-11.85
-12.593
-13.153
-13.542
-13.773
-13.86
-13.818
-13.659
-13.4
-13.053
-12.632
-12.15
-11.622
-11.06
-10.476
-9.883
-9.293
-8.716
-8.163
-7.644
-7.169
-6.746
-6.382
-6.086
-5.863
-5.719
-5.658
-5.686
-5.804
-6.016
-6.323
-6.727
-7.228
-7.825
-8.519
-9.307
-10.187
-11.156
-12.211
-13.348
-14.564
-15.853
-17.211
-18.632
-20.111
-21.642
-23.219
-24.837
-26.489
-28.168
-29.867
-31.581
-33.302
-35.024
-36.74
-38.444
-40.129
-41.789
-43.419
-45.013
-46.566
-48.073
-49.528
-50.929
-52.27
-53.547
-54.758
-55.898
-56.966
-57.959
-58.874
-59.71
-60.466
-61.14
-61.731
-62.238
-62.661
-62.998
-63.25
-63.416
-63.496
-63.49
-63.4
-63.225
-62.968
-62.63
-62.213
-61.719
-61.149
-60.505
-59.789
-59.004
-58.15
-57.229
-56.242
-55.192
-54.081
-52.91
-51.683
-50.402
-49.069
-47.686
-46.256
-44.782
-43.267
-41.714
-40.126
-38.509
-36.867
-35.206
-33.533
-31.856
-30.181
-28.515
-26.867
-25.244
-23.651
-22.095
-20.58
-19.112
-17.694
-16.333
-15.033
-13.804
-12.652
-11.585
-10.613
-9.744
-8.983
-8.339
-7.816
-7.414
-7.132
-6.971
-6.935
-7.033
-7.275
-7.658
-8.181
-8.84
-9.624
-10.524
-11.521
-12.577
-13.661
-14.743
-15.796
-16.823
-17.83
-18.816
-19.774
-20.692
-21.554
-22.375
-23.176
-23.963
-24.748
-25.544
-26.387
-27.375
-28.609
-30.164
-32.099
-34.413
-37.084
-40.121
-43.539
-47.346
-51.543
-56.05
-60.769
-65.678
-70.704
-75.721
-80.511
-84.681
-87.837
-89.709
-90.103
-88.904
-86.187
-82.089
-76.893
-71.118
-65.276
-59.926
-55.504
-52.159
-49.769
-47.969
-46.116
-43.433
-39.126
-31.908
-20.513
-3.961
18.827
47.137
77.953
108.428
135.354
157.93
181.205
208.236
238.315
266.022
273.838
244.401
168.327
42.273
-118.595
-287.822
-441.569
-554.899
-614.495
-624.187
-589.919
-523.167
-439.865
-347.974
-258.151
-183.987
-128.718
-93.873
-75.733
-61.415
-45.244
-26.266
-5.979
8.447
14.161
12.98
7.717
2.786
0.742
1.601
4.851
9.754
15.708
22.299
28.863
34.573
38.706
41.021
41.711
41.088
39.521
37.361
34.943
32.677
30.979
30.071
29.996
30.723
32.152
34.205
36.836
39.963
43.463
47.221
51.122
55.061
58.981
62.832
66.55
70.092
73.422
76.517
79.39
82.062
84.548
86.869
89.051
91.121
93.122
95.103
97.114
99.214
101.446
103.839
106.42
109.208
112.211
115.437
118.878
122.52
126.352
130.365
134.547
138.888
143.373
147.984
152.701
157.501
162.362
167.264
172.185
177.106
182.006
186.866
191.666
196.391
201.022
205.537
209.917
214.137
218.176
222.012
225.624
228.99
232.089
234.904
237.416
239.61
241.471
242.986
244.142
244.929
245.336
245.355
244.982
244.21
243.037
241.462
239.486
237.11
234.339
231.18
227.638
223.722
219.444
214.813
209.843
204.548
198.945
193.049
186.879
180.455
173.798
166.929
159.872
152.648
145.283
137.801
130.226
122.583
114.896
107.191
99.493
91.825
84.212
76.679
69.247
61.941
54.781
47.789
40.984
34.385
28.009
21.873
15.991
10.378
5.045
0.004
-4.737
-9.17
-13.288
-17.087
-20.565
-23.72
-26.555
-29.071
-31.273
-33.167
-34.759
-36.06
-37.08
-37.829
-38.321
-38.571
-38.592
-38.401
-38.015
-37.452
-36.728
-35.864
-34.877
-33.786
-32.61
-31.366
-30.074
-28.751
-27.413
-26.079
-24.763
-23.481
-22.246
-21.073
-19.973
-18.956
-18.032
-17.209
-16.494
-15.892
-15.406
-15.04
-14.793
-14.667
-14.659
-14.766
-14.985
-15.31
-15.736
-16.253
-16.856
-17.534
-18.277
-19.076
-19.92
-20.799
-21.7
-22.612
-23.525
-24.428
-25.31
-26.161
-26.969
-27.727
-28.425
-29.056
-29.611
-30.086
-30.474
-30.772
-30.976
-31.085
-31.096
-31.012
-30.832
-30.558
-30.195
-29.746
-29.218
-28.615
-27.945
-27.216
-26.437
-25.616
-24.765
-23.892
-23.009
-22.127
-21.257
-20.409
-19.596
-18.827
-18.115
-17.468
-16.897
-16.411
-16.019
-15.728
-15.545
-15.477
-15.529
-15.705
-16.009
-16.442
-17.007
-17.703
-18.529
-19.484
-20.564
-21.766
-23.084
-24.512
-26.043
-27.671
-29.385
-31.178
-33.04
-34.96
-36.928
-38.932
-40.96
-43.001
-45.041
-47.07
-49.075
-51.046
-52.972
-54.842
-56.647
-58.377
-60.025
-61.583
-63.043
-64.4
-65.647
-66.78
-67.796
-68.692
-69.467
-70.119
-70.651
-71.065
-71.363
-71.552
-71.635
-71.618
-71.505
-71.302
-71.016
-70.65
-70.21
-69.701
-69.129
-68.502
-67.827
-67.113
-66.366
-65.59
-64.793
-63.975
-63.138
-62.283
-61.412
-60.524
-59.623
-58.718
-57.817
-56.933
-56.078
-55.253
-54.458
-53.686
-52.923
-52.15
-51.352
-50.511
-49.617
-48.662
-47.641
-46.553
-45.4
-44.186
-42.898
-41.51
-40.005
-38.384
-36.667
-34.898
-33.134
-31.427
-29.846
-28.47
-27.374
-26.632
-26.296
-26.379
-26.893
-27.844
-29.199
-30.912
-32.87
-34.846
-36.647
-38.102
-38.951
-38.994
-38.23
-36.723
-34.733
-32.742
-31.002
-29.735
-29.439
-30.383
-32.45
-35.376
-38.445
-40.613
-41.281
-39.835
-35.006
-25.758
-11.338
9.227
35.176
63.525
91.545
115.915
134.97
153.29
174.948
200.277
225.673
234.7
207.306
131.508
0.925
-172.658
-361.271
-538.098
-674.38
-750.782
-768.479
-734.695
-663.603
-574.134
-476.337
-378.521
-290.337
-218.049
-167.755
-142.611
-138.697
-145.832
-153.182
-153.199
-141.826
-123.843
-107.407
-96.519
-94.348
-98.574
-102.758
-104.356
-101.917
-95.57
-88.293
-81.523
-75.731
-71.696
-69.209
-67.906
-67.758
-68.424
-69.467
-70.6
-71.465
-71.632
-70.88
-69.142
-66.398
-62.747
-58.308
-53.157
-47.397
-41.183
-34.657
-27.958
-21.224
-14.527
-7.93
-1.512
4.669
10.569
16.156
21.435
26.423
31.128
35.572
39.785
43.8
47.667
51.442
55.182
58.949
62.793
66.746
70.84
75.095
79.526
84.14
88.937
93.904
99.037
104.331
109.775
115.366
121.091
126.933
132.877
138.901
144.987
151.116
157.27
163.428
169.572
175.683
181.741
187.729
193.625
199.406
205.047
210.52
215.799
220.857
225.666
230.201
234.434
238.342
241.901
245.09
247.888
250.276
252.236
253.753
254.811
255.4
255.511
255.134
254.266
252.904
251.049
248.702
245.87
242.559
238.781
234.546
229.869
224.769
219.263
213.373
207.123
200.54
193.649
186.481
179.066
171.436
163.623
155.661
147.584
139.424
131.216
122.994
114.789
106.634
98.561
90.599
82.778
75.125
67.665
60.424
53.422
46.681
40.219
34.052
28.193
22.654
17.446
12.576
8.048
3.866
0.029
-3.464
-6.616
-9.435
-11.928
-14.106
-15.979
-17.562
-18.868
-19.914
-20.716
-21.292
-21.661
-21.843
-21.855
-21.718
-21.452
-21.075
-20.607
-20.065
-19.469
-18.834
-18.177
-17.513
-16.857
-16.221
-15.619
-15.061
-14.558
-14.117
-13.745
-13.45
-13.235
-13.104
-13.059
-13.101
-13.229
-13.443
-13.74
-14.116
-14.568
-15.09
-15.678
-16.325
-17.025
-17.771
-18.555
-19.37
-20.211
-21.068
-21.937
-22.81
-23.681
-24.544
-25.393
-26.224
-27.031
-27.81
-28.558
-29.27
-29.943
-30.576
-31.166
-31.711
-32.211
-32.665
-33.073
-33.434
-33.75
-34.022
-34.249
-34.435
-34.58
-34.687
-34.756
-34.791
-34.793
-34.763
-34.703
-34.613
-34.496
-34.35
-34.177
-33.977
-33.748
-33.491
-33.204
-32.886
-32.537
-32.153
-31.735
-31.28
-30.786
-30.253
-29.678
-29.06
-28.398
-27.691
-26.939
-26.139
-25.291
-24.395
-23.449
-22.454
-21.41
-20.318
-19.178
-17.993
-16.764
-15.496
-14.193
-12.859
-11.499
-10.119
-8.726
-7.327
-5.93
-4.543
-3.176
-1.837
-0.538
0.712
1.903
3.024
4.068
5.023
5.883
6.637
7.278
7.799
8.192
8.45
8.565
8.532
8.344
7.998
7.49
6.818
5.981
4.981
3.822
2.51
1.051
-0.544
-2.267
-4.105
-6.046
-8.077
-10.188
-12.368
-14.604
-16.883
-19.191
-21.518
-23.852
-26.182
-28.492
-30.771
-33.005
-35.19
-37.325
-39.406
-41.422
-43.355
-45.178
-46.866
-48.4
-49.754
-50.901
-51.82
-52.492
-52.924
-53.149
-53.195
-53.091
-52.852
-52.467
-51.95
-51.332
-50.659
-50.006
-49.427
-48.934
-48.559
-48.377
-48.404
-48.613
-48.872
-48.883
-48.398
-47.321
-45.638
-43.328
-40.451
-37.174
-33.778
-30.867
-29.07
-28.609
-29.498
-31.883
-35.688
-40.538
-45.178
-46.989
-43.541
-34.133
-21.496
-9.779
-1.947
1.572
6.935
21.059
47.988
90.634
142.511
192.654
230.056
236.798
199.833
114.141
-21.064
-190.082
-368.483
-533.533
-661.602
-739.284
-765.454
-742.219
-676.717
-582.255
-472.329
-363.118
-273.849
-212.54
-178.167
-163.433
-152.164
-135.58
-113.31
-88.505
-69.773
-61.141
-60.892
-65.732
-70.644
-72.677
-71.672
-68.125
-62.874
-56.578
-49.627
-42.683
-36.61
-32.221
-29.841
-29.312
-30.33
-32.442
-35.206
-38.265
-41.165
-43.456
-44.909
-45.455
-45.111
-44
-42.217
-39.819
-36.909
-33.598
-29.99
-26.201
-22.331
-18.478
-14.736
-11.18
-7.862
-4.82
-2.065
0.407
2.61
4.581
6.363
7.996
9.523
10.984
12.428
13.911
15.499
17.26
19.249
21.506
24.061
26.939
30.152
33.708
37.604
41.824
46.355
51.184
56.299
61.688
67.333
73.214
79.303
85.573
91.997
98.548
105.198
111.918
118.677
125.446
132.197
138.904
145.535
152.059
158.442
164.651
170.65
176.406
181.888
187.06
191.891
196.353
200.417
204.058
207.252
209.978
212.217
213.951
215.167
215.854
216.001
215.605
214.661
213.169
211.132
208.556
205.449
201.822
197.689
193.065
187.969
182.422
176.446
170.066
163.308
156.201
148.775
141.062
133.094
124.906
116.532
108.009
99.372
90.657
81.899
73.134
64.397
55.722
47.14
38.684
30.385
22.27
14.368
6.705
-0.697
-7.815
-14.629
-21.123
-27.28
-33.087
-38.534
-43.61
-48.311
-52.629
-56.564
-60.113
-63.28
-66.066
-68.479
-70.524
-72.213
-73.555
-74.564
-75.254
-75.64
-75.74
-75.571
-75.152
-74.501
-73.64
-72.587
-71.363
-69.988
-68.483
-66.869
-65.163
-63.387
-61.557
-59.693
-57.811
-55.927
-54.056
-52.213
-50.41
-48.659
-46.972
-45.359
-43.828
-42.387
-41.041
-39.797
-38.657
-37.624
-36.701
-35.886
-35.179
-34.578
-34.081
-33.683
-33.381
-33.169
-33.042
-32.993
-33.016
-33.105
-33.251
-33.449
-33.691
-33.969
-34.278
-34.61
-34.958
-35.317
-35.68
-36.043
-36.4
-36.748
-37.081
-37.396
-37.691
-37.963
-38.21
-38.43
-38.623
-38.788
-38.926
-39.036
-39.121
-39.182
-39.22
-39.238
-39.239
-39.225
-39.199
-39.163
-39.121
-39.076
-39.029
-38.985
-38.944
-38.908
-38.881
-38.863
-38.856
-38.861
-38.877
-38.906
-38.945
-38.994
-39.051
-39.113
-39.178
-39.242
-39.302
-39.354
-39.395
-39.421
-39.426
-39.407
-39.357
-39.273
-39.148
-38.978
-38.755
-38.476
-38.136
-37.73
-37.254
-36.705
-36.08
-35.375
-34.59
-33.721
-32.769
-31.731
-30.607
-29.398
-28.105
-26.731
-25.28
-23.755
-22.163
-20.512
-18.809
-17.063
-15.283
-13.476
-11.651
-9.814
-7.975
-6.138
-4.312
-2.501
-0.716
1.033
2.734
4.378
5.955
7.458
8.879
10.211
11.45
12.599
13.656
14.619
15.48
16.224
16.839
17.322
17.673
17.896
18.001
18.001
17.922
17.804
17.68
17.578
17.508
17.46
17.435
17.439
17.489
17.606
17.789
18.027
18.312
18.64
18.986
19.304
19.498
19.446
19.046
18.233
16.979
15.262
13.052
10.296
6.957
3.063
-1.327
-6.164
-11.365
-16.827
-22.372
-27.636
-32.21
-35.838
-38.315
-39.527
-39.592
-38.54
-36.47
-33.887
-31.237
-28.738
-26.614
-24.76
-22.722
-20.41
-17.649
-13.654
-7.748
0.626
12.27
27.615
46.757
70.508
98.037
125.669
149.804
166.888
177.685
189.662
208.538
234.835
258.383
256.493
207.931
101.075
-58.824
-246.225
-428.193
-575.153
-667.489
-701.225
-684.192
-626.677
-541.192
-441.641
-338.705
-246.536
-177.755
-134.7
-115.502
-110.614
-106.516
-97.936
-84.592
-70.208
-61.291
-59.303
-61.641
-64.804
-65.217
-61.789
-55.379
-47.047
-37.886
-28.682
-20.286
-13.69
-9.419
-7.552
-7.811
-9.728
-12.881
-16.867
-21.176
-25.226
-28.625
-31.193
-32.895
-33.795
-33.931
-33.307
-31.967
-30.019
-27.561
-24.678
-21.459
-17.954
-14.243
-10.451
-6.678
-3.018
0.461
3.735
6.792
9.616
12.209
14.589
16.778
18.819
20.757
22.627
24.475
26.349
28.302
30.402
32.698
35.229
38.022
41.091
44.443
48.087
52.02
56.23
60.706
65.433
70.4
75.596
81.009
86.617
92.399
98.33
104.385
110.544
116.782
123.078
129.407
135.745
142.069
148.358
154.586
160.725
166.748
172.625
178.325
183.82
189.081
194.078
198.783
203.171
207.216
210.896
214.189
217.074
219.534
221.552
223.114
224.207
224.822
224.951
224.588
223.73
222.378
220.533
218.198
215.381
212.088
208.33
204.121
199.475
194.409
188.942
183.095
176.89
170.353
163.511
156.39
149.02
141.431
133.653
125.718
117.657
109.503
101.287
93.039
84.791
76.574
68.416
60.346
52.391
44.578
36.931
29.474
22.229
15.216
8.454
1.959
-4.253
-10.168
-15.776
-21.066
-26.031
-30.665
-34.964
-38.927
-42.555
-45.848
-48.812
-51.452
-53.777
-55.794
-57.515
-58.952
-60.118
-61.026
-61.693
-62.133
-62.362
-62.398
-62.257
-61.956
-61.512
-60.941
-60.261
-59.487
-58.635
-57.72
-56.757
-55.759
-54.74
-53.712
-52.686
-51.672
-50.68
-49.72
-48.797
-47.918
-47.089
-46.313
-45.593
-44.931
-44.328
-43.783
-43.296
-42.865
-42.486
-42.156
-41.872
-41.629
-41.423
-41.248
-41.1
-40.972
-40.86
-40.758
-40.66
-40.562
-40.458
-40.344
-40.216
-40.071
-39.904
-39.714
-39.497
-39.251
-38.976
-38.669
-38.331
-37.962
-37.562
-37.132
-36.675
-36.193
-35.689
-35.167
-34.629
-34.08
-33.523
-32.962
-32.401
-31.844
-31.294
-30.757
-30.235
-29.731
-29.251
-28.797
-28.37
-27.975
-27.611
-27.281
-26.985
-26.723
-26.494
-26.296
-26.13
-25.992
-25.882
-25.796
-25.732
-25.686
-25.655
-25.633
-25.616
-25.598
-25.574
-25.537
-25.482
-25.406
-25.302
-25.168
-24.998
-24.789
-24.537
-24.241
-23.896
-23.502
-23.054
-22.551
-21.994
-21.383
-20.719
-20.004
-19.241
-18.435
-17.592
-16.718
-15.818
-14.898
-13.962
-13.017
-12.069
-11.12
-10.175
-9.237
-8.314
-7.414
-6.546
-5.717
-4.931
-4.193
-3.506
-2.874
-2.297
-1.771
-1.288
-0.847
-0.451
-0.11
0.163
0.365
0.499
0.57
0.581
0.542
0.469
0.391
0.352
0.375
0.464
0.619
0.831
1.102
1.456
1.906
2.461
3.131
3.915
4.811
5.831
6.946
8.1
9.224
10.201
10.941
11.411
11.572
11.394
10.873
9.945
8.557
6.798
4.796
2.718
0.81
-0.79
-2.006
-2.57
-2.155
-0.698
1.647
4.474
7.169
9.457
11.39
12.77
13.254
13.006
12.432
12.154
13.196
16.069
21.529
31.464
47.479
69.543
94.485
117.559
135.248
146.951
158.273
175.593
202.417
241.947
289.484
335.803
371.119
377.185
338.815
249.476
108.264
-68.44
-254.773
-426.871
-561.179
-643.973
-672.926
-649.263
-579.161
-475.889
-354.951
-234.812
-136.704
-70.276
-34.435
-20.895
-12.594
0.214
18.304
38.624
52.963
58.134
56.736
52.444
50.307
52.601
58.687
67.676
78.295
89.356
100.055
109.365
116.245
120.321
121.701
120.682
117.754
113.423
108.182
102.681
97.563
93.193
89.726
87.189
85.523
84.713
84.758
85.587
87.094
89.175
91.743
94.744
98.128
101.818
105.695
109.611
113.446
117.132
120.628
123.922
127.002
129.855
132.495
134.965
137.314
139.594
141.85
144.112
146.425
148.839
151.413
154.209
157.272
160.627
164.287
168.261
172.549
177.151
182.052
187.225
192.646
198.292
204.143
210.181
216.38
222.711
229.141
235.641
242.181
248.73
255.261
261.742
268.143
274.435
280.59
286.582
292.381
297.956
303.277
308.312
313.031
317.405
321.406
325.005
328.178
330.902
333.156
334.921
336.181
336.923
337.133
336.803
335.926
334.499
332.518
329.984
326.902
323.276
319.115
314.428
309.229
303.532
297.354
290.713
283.629
276.126
268.228
259.959
251.348
242.423
233.214
223.752
214.07
204.199
194.173
184.025
173.788
163.495
153.179
142.871
132.601
122.401
112.299
102.322
92.498
82.852
73.407
64.186
55.209
46.497
38.065
29.931
22.108
14.607
7.441
0.618
-5.856
-11.975
-17.734
-23.133
-28.171
-32.851
-37.175
-41.148
-44.779
-48.073
-51.042
-53.696
-56.046
-58.106
-59.889
-61.409
-62.681
-63.72
-64.544
-65.167
-65.606
-65.878
-66
-65.988
-65.859
-65.629
-65.313
-64.928
-64.489
-64.01
-63.507
-62.992
-62.479
-61.981
-61.509
-61.075
-60.689
-60.359
-60.094
-59.901
-59.786
-59.754
-59.811
-59.957
-60.198
-60.533
-60.963
-61.489
-62.109
-62.821
-63.622
-64.509
-65.477
-66.521
-67.636
-68.816
-70.054
-71.344
-72.677
-74.045
-75.441
-76.855
-78.278
-79.7
-81.113
-82.507
-83.871
-85.197
-86.476
-87.7
-88.86
-89.948
-90.956
-91.879
-92.708
-93.44
-94.067
-94.586
-94.992
-95.283
-95.457
-95.513
-95.452
-95.274
-94.981
-94.576
-94.062
-93.444
-92.726
-91.915
-91.015
-90.037
-88.989
-87.881
-86.724
-85.529
-84.307
-83.071
-81.835
-80.61
-79.41
-78.245
-77.129
-76.076
-75.098
-74.207
-73.418
-72.741
-72.19
-71.779
-71.52
-71.42
-71.489
-71.733
-72.157
-72.766
-73.56
-74.537
-75.697
-77.038
-78.561
-80.267
-82.149
-84.201
-86.412
-88.773
-91.274
-93.902
-96.641
-99.469
-102.371
-105.337
-108.363
-111.448
-114.583
-117.749
-120.923
-124.089
-127.221
-130.295
-133.273
-136.101
-138.743
-141.181
-143.403
-145.407
-147.184
-148.704
-149.948
-150.908
-151.571
-151.95
-152.061
-151.909
-151.539
-151.017
-150.418
-149.871
-149.49
-149.349
-149.543
-150.133
-151.135
-152.607
-154.589
-157.018
-159.821
-162.817
-165.703
-168.334
-170.646
-172.544
-173.957
-174.796
-175.037
-174.941
-174.905
-175.016
-175.086
-174.737
-173.598
-171.573
-168.457
-163.684
-156.888
-148.144
-137.623
-125.997
-113.022
-96.719
-76.999
-54.987
-32.571
-15.536
-6.4
-2.507
-1.189
5.818
26.061
56.547
90.413
113.34
103.079
46.42
-61.191
-216.644
-399.865
-586.523
-754.551
-881.055
-953.207
-967.98
-927.25
-839.822
-720.575
-586.4
-454.657
-344.311
-266.656
-222.085
-205.458
-203.124
-201.349
-195.895
-186.548
-177.401
-174.276
-176.789
-181.675
-185.632
-185.36
-180.444
-172.396
-162.513
-152.074
-142.253
-133.936
-127.928
-124.648
-123.91
-125.236
-128.057
-131.778
-135.833
-139.671
-142.782
-144.879
-145.9
-145.874
-144.9
-143.075
-140.464
-137.174
-133.339
-129.055
-124.413
-119.49
-114.358
-109.135
-103.96
-98.932
-94.122
-89.567
-85.27
-81.239
-77.475
-73.947
-70.613
-67.423
-64.321
-61.264
-58.211
-55.11
-51.903
-48.528
-44.917
-41.022
-36.814
-32.268
-27.375
-22.128
-16.525
-10.577
-4.305
2.272
9.138
16.275
23.668
31.294
39.126
47.136
55.292
63.564
71.925
80.343
88.785
97.221
105.62
113.95
122.182
130.283
138.218
145.952
153.449
160.675
167.596
174.177
180.385
186.189
191.561
196.474
200.903
204.826
208.223
211.076
213.371
215.096
216.242
216.802
216.774
216.158
214.957
213.177
210.826
207.917
204.463
200.482
195.992
191.015
185.576
179.701
173.417
166.755
159.746
152.424
144.822
136.977
128.924
120.701
112.344
103.892
95.38
86.847
78.326
69.855
61.468
53.197
45.074
37.13
29.394
21.891
14.648
7.688
1.03
-5.305
-11.302
-16.945
-22.223
-27.125
-31.644
-35.775
-39.515
-42.861
-45.817
-48.385
-50.57
-52.381
-53.827
-54.918
-55.669
-56.092
-56.205
-56.023
-55.566
-54.852
-53.902
-52.737
-51.378
-49.846
-48.164
-46.354
-44.437
-42.437
-40.374
-38.271
-36.146
-34.022
-31.917
-29.849
-27.837
-25.896
-24.043
-22.291
-20.654
-19.142
-17.767
-16.537
-15.459
-14.539
-13.783
-13.193
-12.771
-12.518
-12.434
-12.516
-12.761
-13.164
-13.721
-14.425
-15.268
-16.241
-17.336
-18.542
-19.848
-21.243
-22.715
-24.252
-25.839
-27.463
-29.111
-30.768
-32.42
-34.053
-35.653
-37.206
-38.701
-40.123
-41.461
-42.703
-43.838
-44.856
-45.747
-46.502
-47.113
-47.573
-47.874
-48.012
-47.981
-47.778
-47.4
-46.844
-46.111
-45.2
-44.112
-42.849
-41.412
-39.807
-38.037
-36.109
-34.03
-31.809
-29.455
-26.979
-24.391
-21.705
-18.933
-16.088
-13.184
-10.234
-7.252
-4.253
-1.25
1.741
4.705
7.629
10.496
13.291
16
18.606
21.095
23.456
25.675
27.742
29.648
31.384
32.944
34.32
35.508
36.501
37.296
37.89
38.283
38.479
38.483
38.304
37.954
37.443
36.784
35.987
35.063
34.017
32.855
31.58
30.194
28.712
27.15
25.531
23.885
22.235
20.603
19.014
17.486
16.033
14.674
13.418
12.271
11.249
10.383
9.711
9.263
9.045
9.043
9.229
9.569
10.025
10.546
11.066
11.512
11.827
11.985
11.947
11.672
11.177
10.515
9.791
9.212
8.962
9.148
9.974
11.696
14.311
17.637
21.299
24.668
27.328
29.167
29.935
29.255
27.185
24.182
21.11
19.253
19.504
22.304
28.283
38.265
52.843
72.342
96.544
124.896
155.841
186.199
212.76
232.084
243.926
253.708
264.801
276.992
284.546
270.504
219.943
126.391
-10.913
-176.218
-345.287
-496.58
-606.442
-661.291
-663.087
-618.357
-540.829
-447.755
-348.585
-251.733
-167.206
-99.963
-53.769
-29.591
-19.828
-15.595
-12.181
-6.926
-1.455
0.24
-1.509
-4.253
-5.841
-3.78
2.309
11.026
21.164
31.578
40.956
48.248
52.958
54.901
54.299
51.728
47.687
42.639
37.239
32.118
27.662
24.097
21.462
19.667
18.695
18.532
19.11
20.331
22.094
24.304
26.906
29.854
33.075
36.461
39.871
43.195
46.368
49.355
52.15
54.744
57.124
59.304
61.322
63.224
65.06
66.876
68.704
70.592
72.592
74.764
77.178
79.882
82.904
86.265
89.974
94.037
98.457
103.227
108.323
113.728
119.424
125.393
131.621
138.088
144.765
151.623
158.63
165.758
172.978
180.26
187.571
194.88
202.158
209.375
216.501
223.506
230.355
237.015
243.452
249.631
255.52
261.087
266.299
271.126
275.542
279.521
283.039
286.076
288.613
290.631
292.117
293.06
293.45
293.279
292.544
291.243
289.379
286.955
283.978
280.457
276.404
271.834
266.763
261.21
255.196
248.743
241.877
234.624
227.014
219.075
210.839
202.339
193.606
184.677
175.584
166.362
157.045
147.667
138.261
128.86
119.496
110.199
101.001
91.928
83.01
74.271
65.737
57.43
49.371
41.58
34.073
26.867
19.975
13.409
7.179
1.292
-4.245
-9.429
-14.257
-18.73
-22.848
-26.616
-30.039
-33.124
-35.878
-38.312
-40.436
-42.263
-43.805
-45.077
-46.093
-46.868
-47.419
-47.76
-47.909
-47.882
-47.694
-47.364
-46.907
-46.338
-45.675
-44.932
-44.123
-43.265
-42.369
-41.451
-40.521
-39.592
-38.675
-37.78
-36.916
-36.093
-35.316
-34.594
-33.931
-33.332
-32.802
-32.343
-31.958
-31.647
-31.411
-31.251
-31.166
-31.153
-31.21
-31.337
-31.528
-31.781
-32.092
-32.458
-32.873
-33.332
-33.832
-34.367
-34.93
-35.516
-36.119
-36.733
-37.352
-37.969
-38.58
-39.176
-39.754
-40.307
-40.83
-41.317
-41.763
-42.164
-42.515
-42.812
-43.051
-43.228
-43.341
-43.387
-43.365
-43.273
-43.111
-42.878
-42.574
-42.2
-41.755
-41.241
-40.66
-40.011
-39.3
-38.528
-37.7
-36.82
-35.893
-34.925
-33.922
-32.891
-31.838
-30.77
-29.694
-28.616
-27.546
-26.491
-25.46
-24.461
-23.503
-22.594
-21.745
-20.966
-20.266
-19.652
-19.13
-18.709
-18.392
-18.185
-18.089
-18.104
-18.233
-18.478
-18.844
-19.332
-19.942
-20.673
-21.523
-22.489
-23.563
-24.738
-26
-27.335
-28.736
-30.196
-31.715
-33.298
-34.939
-36.63
-38.362
-40.118
-41.878
-43.618
-45.299
-46.885
-48.359
-49.707
-50.932
-52.04
-53.022
-53.87
-54.581
-55.13
-55.501
-55.691
-55.694
-55.528
-55.242
-54.891
-54.549
-54.308
-54.225
-54.348
-54.714
-55.337
-56.223
-57.389
-58.861
-60.622
-62.607
-64.685
-66.622
-68.189
-69.22
-69.462
-68.6
-66.563
-63.452
-59.568
-55.59
-52.041
-49.169
-47.444
-47.321
-48.731
-51.413
-54.711
-57.268
-58.031
-56.239
-50.782
-40.548
-24.807
-3.012
25.033
57.567
91.151
122.204
146.669
163.787
178.505
195.323
215.366
232.028
227.06
181.206
83.422
-63.444
-239.113
-414.689
-563.835
-670.148
-727.619
-738.653
-708.664
-640.444
-542.41
-427.753
-312.863
-219.519
-158.112
-126.623
-115.667
-107.72
-93.518
-73.646
-52.421
-38.35
-34.754
-38.917
-47.06
-54.429
-58.312
-58.731
-56.231
-51.528
-45.363
-38.364
-31.225
-24.807
-19.879
-16.669
-15.063
-14.816
-15.505
-16.716
-18.098
-19.227
-19.706
-19.364
-18.163
-16.144
-13.443
-10.166
-6.397
-2.255
2.122
6.616
11.121
15.542
19.825
23.912
27.751
31.313
34.578
37.546
40.233
42.665
44.871
46.892
48.768
50.543
52.267
53.997
55.793
57.719
59.826
62.156
64.739
67.599
70.753
74.212
77.977
82.042
86.401
91.046
95.969
101.164
106.619
112.316
118.236
124.355
130.65
137.1
143.679
150.362
157.124
163.939
170.779
177.62
184.434
191.189
197.854
204.393
210.774
216.963
222.925
228.627
234.035
239.118
243.847
248.192
252.128
255.628
258.668
261.228
263.287
264.829
265.839
266.304
266.214
265.564
264.349
262.567
260.222
257.316
253.857
249.854
245.319
240.265
234.71
228.672
222.173
215.236
207.887
200.153
192.064
183.649
174.942
165.976
156.785
147.403
137.865
128.208
118.466
108.677
98.874
89.093
79.37
69.738
60.23
50.878
41.714
32.767
24.065
15.635
7.501
-0.313
-7.785
-14.896
-21.628
-27.965
-33.892
-39.398
-44.473
-49.11
-53.303
-57.049
-60.346
-63.196
-65.602
-67.568
-69.101
-70.21
-70.906
-71.199
-71.104
-70.636
-69.811
-68.647
-67.164
-65.381
-63.32
-61.002
-58.45
-55.687
-52.736
-49.62
-46.364
-42.991
-39.525
-35.991
-32.412
-28.811
-25.211
-21.634
-18.102
-14.635
-11.253
-7.973
-4.814
-1.792
1.078
3.783
6.31
8.647
10.784
12.714
14.429
15.925
17.196
18.242
19.06
19.651
20.018
20.164
20.093
19.811
19.324
18.64
17.769
16.721
15.507
14.139
12.63
10.995
9.247
7.402
5.475
3.482
1.437
-0.643
-2.743
-4.848
-6.941
-9.009
-11.036
-13.008
-14.91
-16.731
-18.457
-20.078
-21.582
-22.961
-24.205
-25.309
-26.265
-27.069
-27.715
-28.202
-28.526
-28.686
-28.682
-28.518
-28.195
-27.72
-27.097
-26.334
-25.44
-24.423
-23.294
-22.065
-20.745
-19.348
-17.886
-16.373
-14.824
-13.252
-11.674
-10.102
-8.554
-7.044
-5.589
-4.203
-2.901
-1.697
-0.603
0.369
1.209
1.908
2.457
2.85
3.082
3.147
3.041
2.758
2.298
1.66
0.85
-0.126
-1.26
-2.542
-3.96
-5.503
-7.158
-8.918
-10.776
-12.733
-14.788
-16.928
-19.135
-21.383
-23.64
-25.875
-28.065
-30.182
-32.204
-34.116
-35.904
-37.564
-39.101
-40.504
-41.75
-42.797
-43.608
-44.173
-44.513
-44.679
-44.737
-44.751
-44.773
-44.862
-45.081
-45.474
-46.075
-46.905
-47.944
-49.159
-50.569
-52.235
-54.162
-56.282
-58.401
-60.18
-61.293
-61.549
-60.816
-58.932
-55.863
-51.745
-46.876
-41.909
-37.639
-34.504
-32.617
-32.209
-33.161
-34.959
-37.242
-38.03
-35.077
-28.107
-16.166
-0.462
17.202
38.866
63.256
89.51
117.297
141.875
165.234
189.876
213.599
232.484
229.48
183.74
83.239
-74.259
-270.196
-471.492
-647.005
-769.358
-824.638
-816.561
-752.893
-649.041
-526.794
-402.659
-295.962
-220.881
-176.568
-157.514
-150.621
-141.065
-124.944
-103.844
-83.345
-70.822
-67.447
-70.209
-75.044
-77.529
-76.084
-71.366
-64.256
-55.793
-46.756
-37.795
-29.822
-23.779
-20.101
-18.711
-19.327
-21.521
-24.827
-28.778
-32.826
-36.404
-39.191
-41.095
-42.105
-42.291
-41.713
-40.401
-38.446
-35.978
-33.093
-29.868
-26.364
-22.63
-18.758
-14.893
-11.141
-7.58
-4.254
-1.168
1.667
4.243
6.576
8.707
10.682
12.556
14.373
16.167
17.985
19.88
21.913
24.156
26.66
29.46
32.584
36.044
39.852
44.015
48.527
53.367
58.52
63.969
69.699
75.699
81.95
88.425
95.099
101.942
108.927
116.026
123.211
130.452
137.719
144.982
152.212
159.383
166.463
173.418
180.216
186.821
193.199
199.318
205.142
210.64
215.778
220.528
224.862
228.754
232.181
235.118
237.549
239.455
240.823
241.641
241.901
241.596
240.725
239.286
237.283
234.721
231.609
227.955
223.774
219.081
213.895
208.235
202.124
195.587
188.65
181.341
173.691
165.73
157.491
149.008
140.314
131.446
122.439
113.329
104.151
94.941
85.734
76.564
67.463
58.464
49.597
40.891
32.373
24.068
16.001
8.192
0.663
-6.571
-13.492
-20.088
-26.347
-32.261
-37.822
-43.025
-47.868
-52.35
-56.472
-60.238
-63.653
-66.723
-69.457
-71.864
-73.958
-75.751
-77.258
-78.494
-79.477
-80.224
-80.755
-81.086
-81.239
-81.232
-81.085
-80.816
-80.445
-79.991
-79.471
-78.903
-78.305
-77.692
-77.079
-76.481
-75.912
-75.383
-74.905
-74.49
-74.146
-73.88
-73.701
-73.614
-73.624
-73.736
-73.951
-74.272
-74.7
-75.233
-75.871
-76.61
-77.448
-78.381
-79.402
-80.507
-81.689
-82.942
-84.259
-85.631
-87.052
-88.512
-90.003
-91.516
-93.042
-94.572
-96.096
-97.607
-99.094
-100.549
-101.965
-103.332
-104.643
-105.889
-107.064
-108.159
-109.168
-110.084
-110.899
-111.61
-112.21
-112.695
-113.06
-113.303
-113.421
-113.412
-113.274
-113.006
-112.607
-112.077
-111.416
-110.626
-109.709
-108.667
-107.506
-106.229
-104.842
-103.352
-101.766
-100.092
-98.338
-96.513
-94.626
-92.686
-90.706
-88.695
-86.666
-84.63
-82.6
-80.59
-78.611
-76.678
-74.804
-73.002
-71.286
-69.667
-68.155
-66.76
-65.492
-64.359
-63.371
-62.532
-61.852
-61.335
-60.988
-60.815
-60.817
-60.99
-61.331
-61.83
-62.479
-63.27
-64.193
-65.239
-66.4
-67.671
-69.049
-70.537
-72.126
-73.801
-75.544
-77.326
-79.125
-80.925
-82.705
-84.446
-86.134
-87.757
-89.305
-90.778
-92.156
-93.418
-94.523
-95.424
-96.095
-96.537
-96.764
-96.813
-96.708
-96.473
-96.157
-95.824
-95.52
-95.289
-95.134
-95.067
-95.159
-95.42
-95.813
-96.266
-96.579
-96.579
-96.184
-95.188
-93.323
-90.571
-87.067
-83.153
-79.46
-76.376
-73.993
-72.58
-72.521
-73.828
-76.182
-78.791
-80.43
-80.327
-78.155
-73.328
-64.997
-52.37
-34.863
-12.547
14.187
44.267
75.016
103.273
125.265
139.553
150.614
162.789
177.295
190.001
184.395
142.6
54.636
-82.643
-254.902
-436.892
-604.782
-733.998
-808.731
-826.045
-788.789
-706.234
-594.102
-468.596
-345.591
-242.552
-169.49
-126.513
-108.459
-102.247
-95.431
-84.482
-70.101
-57.214
-51.32
-52.049
-56.204
-60.079
-60.388
-56.632
-49.844
-41.003
-31.236
-21.524
-12.769
-5.99
-1.689
0.204
-0.015
-1.885
-4.91
-8.592
-12.349
-15.586
-17.962
-19.38
-19.841
-19.438
-18.238
-16.286
-13.688
-10.581
-7.076
-3.254
0.818
5.094
9.476
13.822
18.024
22.007
25.729
29.187
32.373
35.281
37.93
40.363
42.631
44.79
46.889
48.963
51.063
53.243
55.566
58.103
60.906
64.01
67.441
71.213
75.337
79.819
84.652
89.819
95.301
101.083
107.151
113.493
120.088
126.912
133.938
141.136
148.48
155.943
163.494
171.104
178.743
186.381
193.988
201.536
208.993
216.325
223.499
230.478
237.228
243.716
249.907
255.768
261.266
266.374
271.062
275.306
279.083
282.369
285.148
287.402
289.118
290.285
290.896
290.946
290.431
289.354
287.717
285.528
282.794
279.529
275.745
271.459
266.692
261.465
255.801
249.725
243.267
236.454
229.319
221.894
214.212
206.307
198.216
189.974
181.617
173.182
164.705
156.22
147.763
139.367
131.065
122.887
114.863
107.022
99.39
91.991
84.849
77.984
71.415
65.159
59.231
53.643
48.406
43.527
39.013
34.868
31.093
27.688
24.652
21.979
19.665
17.702
16.079
14.786
13.81
13.138
12.752
12.638
12.779
13.155
13.75
14.544
15.519
16.656
17.937
19.343
20.855
22.457
24.131
25.86
27.628
29.419
31.219
33.014
34.791
36.538
38.244
39.898
41.491
43.015
44.46
45.822
47.093
48.27
49.347
50.323
51.196
51.965
52.629
53.188
53.645
54
54.255
54.412
54.473
54.442
54.32
54.112
53.819
53.446
52.996
52.472
51.878
51.216
50.491
49.706
48.864
47.968
47.024
46.035
45.005
43.938
42.84
41.714
40.565
39.397
38.214
37.02
35.819
34.615
33.412
32.214
31.025
29.849
28.69
27.553
26.443
25.363
24.319
23.314
22.354
21.441
20.58
19.776
19.031
18.351
17.738
17.195
16.726
16.331
16.011
15.766
15.594
15.494
15.463
15.498
15.595
15.749
15.957
16.213
16.512
16.846
17.21
17.594
17.992
18.395
18.792
19.174
19.528
19.844
20.112
20.321
20.463
20.527
20.506
20.391
20.178
19.859
19.425
18.87
18.185
17.367
16.414
15.324
14.101
12.749
11.276
9.69
8.002
6.217
4.34
2.369
0.3
-1.865
-4.122
-6.457
-8.854
-11.288
-13.728
-16.144
-18.508
-20.805
-23.021
-25.153
-27.198
-29.145
-30.986
-32.704
-34.263
-35.631
-36.786
-37.731
-38.488
-39.117
-39.68
-40.234
-40.85
-41.576
-42.455
-43.532
-44.825
-46.334
-48.057
-50.021
-52.216
-54.6
-57.059
-59.339
-61.215
-62.473
-62.827
-62.062
-60.181
-57.324
-53.839
-50.337
-47.22
-44.819
-43.724
-44.216
-46.107
-49.027
-52.13
-54.187
-54.406
-52.062
-45.757
-34.384
-17.252
6.56
36.045
67.657
98.122
123.878
143.668
163.054
186.901
215.572
243.644
252.109
220.1
135.884
-3.202
-180.114
-366.501
-536.679
-666.68
-743.451
-766.203
-737.142
-663.472
-559.616
-441.081
-326.377
-236.026
-177.536
-148.429
-139.517
-133.495
-121.721
-104.425
-85.15
-72.291
-68.847
-71.984
-77.989
-81.918
-81.529
-77.425
-70.396
-61.486
-51.668
-41.64
-32.389
-25.025
-20.04
-17.409
-16.896
-18.086
-20.535
-23.81
-27.348
-30.54
-33.038
-34.722
-35.579
-35.69
-35.104
-33.834
-31.956
-29.588
-26.822
-23.731
-20.379
-16.807
-13.092
-9.359
-5.715
-2.241
1.012
4.029
6.809
9.344
11.645
13.741
15.674
17.49
19.237
20.949
22.671
24.452
26.35
28.432
30.751
33.344
36.238
39.449
42.987
46.859
51.062
55.582
60.403
65.51
70.891
76.532
82.417
88.522
94.821
101.286
107.888
114.602
121.398
128.247
135.119
141.983
148.811
155.573
162.24
168.778
175.151
181.324
187.263
192.934
198.301
203.333
207.995
212.258
216.093
219.474
222.378
224.779
226.659
227.998
228.782
228.999
228.638
227.692
226.157
224.033
221.32
218.025
214.154
209.716
204.726
199.198
193.15
186.603
179.579
172.103
164.203
155.908
147.249
138.26
128.974
119.428
109.658
99.701
89.597
79.383
69.097
58.779
48.467
38.198
28.011
17.941
8.024
-1.705
-11.215
-20.473
-29.45
-38.119
-46.453
-54.429
-62.024
-69.218
-75.993
-82.334
-88.228
-93.662
-98.629
-103.123
-107.138
-110.675
-113.734
-116.317
-118.431
-120.083
-121.282
-122.039
-122.368
-122.283
-121.801
-120.941
-119.72
-118.161
-116.285
-114.115
-111.674
-108.986
-106.076
-102.967
-99.685
-96.254
-92.7
-89.046
-85.317
-81.537
-77.729
-73.917
-70.121
-66.364
-62.665
-59.043
-55.515
-52.098
-48.807
-45.656
-42.658
-39.824
-37.163
-34.684
-32.396
-30.302
-28.408
-26.716
-25.228
-23.945
-22.864
-21.985
-21.304
-20.816
-20.517
-20.4
-20.459
-20.687
-21.075
-21.613
-22.293
-23.103
-24.034
-25.074
-26.211
-27.435
-28.734
-30.096
-31.51
-32.964
-34.448
-35.949
-37.457
-38.96
-40.448
-41.91
-43.337
-44.717
-46.042
-47.304
-48.494
-49.605
-50.63
-51.563
-52.397
-53.128
-53.75
-54.26
-54.653
-54.927
-55.079
-55.108
-55.014
-54.795
-54.453
-53.988
-53.403
-52.698
-51.878
-50.943
-49.898
-48.747
-47.496
-46.149
-44.713
-43.195
-41.604
-39.947
-38.235
-36.475
-34.679
-32.854
-31.012
-29.163
-27.318
-25.485
-23.677
-21.904
-20.176
-18.505
-16.901
-15.375
-13.937
-12.598
-11.367
-10.25
-9.256
-8.389
-7.654
-7.054
-6.593
-6.273
-6.096
-6.063
-6.173
-6.423
-6.809
-7.324
-7.959
-8.7
-9.537
-10.458
-11.452
-12.511
-13.629
-14.801
-16.03
-17.312
-18.639
-19.997
-21.372
-22.739
-24.079
-25.376
-26.607
-27.761
-28.826
-29.792
-30.654
-31.406
-32.03
-32.501
-32.78
-32.843
-32.687
-32.326
-31.787
-31.107
-30.333
-29.524
-28.764
-28.127
-27.659
-27.379
-27.322
-27.538
-28.023
-28.731
-29.558
-30.28
-30.724
-30.786
-30.25
-28.874
-26.638
-23.648
-20.221
-17.051
-14.664
-13.363
-13.675
-15.969
-20.065
-25.78
-32.588
-38.989
-43.895
-45.628
-40.92
-28.663
-9.259
15.828
41.109
64.011
86.379
109.655
139.464
179.268
225.392
274.048
315.305
333.673
315.604
246.828
120.973
-52.863
-254.162
-451.514
-613.652
-720.759
-764.31
-751.474
-694.549
-603.146
-491.835
-370.838
-253.318
-159.363
-95.996
-63.9
-55.726
-52.525
-44.912
-31.436
-14.639
-3.48
-1.196
-4.833
-10.579
-13.509
-11.533
-5.622
2.984
13.012
23.446
33.458
42.094
48.476
52.243
53.581
52.884
50.609
47.256
43.354
39.444
36.049
33.455
31.715
30.82
30.707
31.316
32.609
34.495
36.853
39.594
42.655
45.977
49.517
53.183
56.843
60.402
63.794
66.983
69.969
72.748
75.311
77.679
79.895
82.007
84.067
86.121
88.204
90.359
92.641
95.104
97.814
100.817
104.141
107.805
111.819
116.188
120.912
125.981
131.372
137.062
143.032
149.261
155.733
162.423
169.3
176.335
183.494
190.746
198.06
205.404
212.745
220.049
227.285
234.42
241.424
248.265
254.908
261.318
267.46
273.3
278.805
283.942
288.678
292.985
296.835
300.203
303.066
305.403
307.196
308.429
309.089
309.165
308.651
307.541
305.833
303.529
300.632
297.149
293.089
288.464
283.288
277.578
271.353
264.635
257.448
249.816
241.767
233.331
224.539
215.423
206.016
196.353
186.47
176.404
166.189
155.864
145.466
135.029
124.591
114.187
103.85
93.614
83.511
73.573
63.827
54.302
45.024
36.017
27.303
18.902
10.834
3.114
-4.243
-11.225
-17.822
-24.026
-29.831
-35.232
-40.228
-44.818
-49.005
-52.792
-56.184
-59.189
-61.816
-64.075
-65.978
-67.539
-68.771
-69.69
-70.313
-70.657
-70.739
-70.577
-70.191
-69.599
-68.82
-67.873
-66.777
-65.551
-64.212
-62.778
-61.268
-59.698
-58.083
-56.441
-54.785
-53.13
-51.49
-49.878
-48.306
-46.785
-45.326
-43.939
-42.632
-41.413
-40.289
-39.266
-38.349
-37.543
-36.85
-36.273
-35.814
-35.474
-35.253
-35.15
-35.164
-35.293
-35.535
-35.888
-36.347
-36.909
-37.57
-38.326
-39.172
-40.103
-41.114
-42.2
-43.354
-44.57
-45.841
-47.161
-48.522
-49.916
-51.336
-52.773
-54.22
-55.669
-57.111
-58.538
-59.943
-61.318
-62.654
-63.946
-65.185
-66.366
-67.482
-68.528
-69.499
-70.389
-71.196
-71.915
-72.543
-73.076
-73.511
-73.847
-74.082
-74.214
-74.243
-74.169
-73.993
-73.718
-73.346
-72.883
-72.332
-71.699
-70.991
-70.215
-69.381
-68.498
-67.574
-66.622
-65.65
-64.673
-63.7
-62.743
-61.815
-60.925
-60.087
-59.31
-58.605
-57.984
-57.455
-57.028
-56.713
-56.518
-56.451
-56.521
-56.734
-57.096
-57.614
-58.292
-59.13
-60.126
-61.276
-62.571
-64.005
-65.567
-67.243
-69.021
-70.887
-72.833
-74.852
-76.933
-79.066
-81.234
-83.424
-85.623
-87.823
-90.017
-92.195
-94.351
-96.482
-98.592
-100.684
-102.756
-104.791
-106.755
-108.614
-110.339
-111.899
-113.269
-114.436
-115.377
-116.083
-116.556
-116.784
-116.772
-116.534
-116.073
-115.413
-114.585
-113.617
-112.604
-111.686
-110.914
-110.267
-109.63
-108.774
-107.557
-105.958
-103.883
-101.155
-97.761
-93.942
-90.246
-87.465
-86.172
-86.48
-88.364
-92.002
-97.36
-103.827
-110.462
-116.103
-119.722
-121.005
-119.046
-111.649
-97.336
-76.505
-52.863
-31.972
-17.545
-9.668
-2.532
10.201
31.677
64.149
102.735
139.245
166.292
167.76
128.061
38.156
-107.928
-297.363
-502.136
-692.998
-838.599
-919.896
-936.453
-895.597
-811.069
-700.009
-576.382
-453.503
-346.951
-266.656
-214.491
-187.077
-172.575
-159.139
-143.021
-124.285
-107.486
-98.336
-96.772
-100.017
-104.571
-106.44
-104.479
-99.522
-92.37
-84.128
-75.791
-67.944
-61.344
-56.8
-54.523
-54.334
-55.929
-58.762
-62.244
-65.915
-69.268
-71.816
-73.349
-73.801
-73.174
-71.591
-69.161
-65.977
-62.185
-57.936
-53.339
-48.492
-43.478
-38.387
-33.357
-28.504
-23.9
-19.595
-15.6
-11.92
-8.564
-5.509
-2.703
-0.085
2.411
4.843
7.254
9.701
12.247
14.96
17.913
21.159
24.728
28.645
32.93
37.604
42.682
48.162
54.013
60.204
66.709
73.504
80.569
87.869
95.358
102.998
110.766
118.659
126.676
134.803
143.006
151.241
159.462
167.644
175.779
183.859
191.864
199.77
207.562
215.247
222.843
230.337
237.674
244.758
251.497
257.829
263.714
269.131
274.054
278.438
282.234
285.4
287.912
289.744
290.853
291.167
290.605
289.134
286.785
283.643
279.788
275.274
270.137
264.404
258.124
251.352
244.143
236.533
228.55
220.236
211.66
202.919
194.119
185.327
176.563
167.812
159.065
150.335
141.644
133.015
124.454
115.971
107.59
99.353
91.305
83.474
75.872
68.493
61.328
54.385
47.691
41.283
35.193
29.44
24.042
19.017
14.385
10.163
6.349
2.932
-0.104
-2.768
-5.066
-7.001
-8.58
-9.815
-10.724
-11.323
-11.631
-11.666
-11.449
-11.003
-10.353
-9.523
-8.53
-7.393
-6.129
-4.756
-3.294
-1.761
-0.175
1.447
3.089
4.732
6.36
7.958
9.513
11.012
12.443
13.798
15.066
16.241
17.316
18.284
19.144
19.89
20.52
21.034
21.431
21.711
21.876
21.929
21.872
21.708
21.443
21.082
20.629
20.09
19.471
18.777
18.017
17.194
16.316
15.39
14.42
13.415
12.38
11.322
10.247
9.16
8.067
6.974
5.886
4.807
3.742
2.695
1.67
0.67
-0.3
-1.236
-2.135
-2.994
-3.808
-4.576
-5.294
-5.959
-6.569
-7.121
-7.613
-8.045
-8.413
-8.716
-8.951
-9.119
-9.216
-9.242
-9.195
-9.073
-8.875
-8.601
-8.251
-7.824
-7.32
-6.739
-6.081
-5.348
-4.54
-3.658
-2.703
-1.678
-0.586
0.57
1.784
3.052
4.367
5.725
7.118
8.538
9.978
11.432
12.891
14.347
15.792
17.216
18.609
19.963
21.267
22.512
23.683
24.771
25.764
26.654
27.43
28.085
28.609
28.995
29.242
29.344
29.298
29.097
28.737
28.211
27.521
26.665
25.643
24.458
23.116
21.627
20.006
18.266
16.415
14.456
12.386
10.206
7.926
5.554
3.098
0.58
-1.977
-4.536
-7.045
-9.47
-11.796
-14.014
-16.128
-18.139
-20.027
-21.785
-23.402
-24.858
-26.145
-27.245
-28.141
-28.87
-29.495
-30.103
-30.811
-31.679
-32.732
-34.008
-35.521
-37.293
-39.351
-41.661
-44.193
-47.001
-50.08
-53.357
-56.668
-59.63
-61.846
-63.021
-62.808
-60.931
-57.372
-52.333
-46.401
-40.579
-35.798
-32.827
-32.345
-34.67
-39.631
-46.472
-53.688
-59.284
-61.131
-57.138
-45.469
-24.52
5.787
42.856
83.035
121.877
156.853
191.014
227.174
264.916
299.17
313.549
289.749
216.825
90.97
-74.18
-253.221
-420.846
-552.288
-634.649
-667.399
-656.97
-614.441
-548.271
-467.6
-379.897
-293.948
-223.291
-173.299
-144.686
-132.83
-124.902
-114.487
-100.599
-84.849
-73.479
-68.737
-68.525
-70.17
-70.023
-66.505
-60.335
-52.373
-43.526
-34.475
-25.689
-17.861
-11.796
-7.878
-5.998
-5.844
-6.993
-9.031
-11.632
-14.385
-16.803
-18.588
-19.619
-19.865
-19.396
-18.268
-16.493
-14.135
-11.293
-8.046
-4.494
-0.727
3.183
7.132
11.024
14.787
18.353
21.688
24.78
27.623
30.23
32.625
34.835
36.898
38.856
40.749
42.626
44.545
46.564
48.752
51.165
53.844
56.826
60.132
63.776
67.769
72.109
76.788
81.797
87.126
92.763
98.7
104.922
111.407
118.134
125.075
132.202
139.489
146.909
154.432
162.03
169.673
177.331
184.977
192.579
200.105
207.518
214.782
221.86
228.717
235.315
241.618
247.591
253.2
258.414
263.202
267.537
271.393
274.747
277.576
279.864
281.593
282.751
283.328
283.318
282.716
281.521
279.737
277.368
274.422
270.911
266.847
262.247
257.128
251.513
245.423
238.884
231.923
224.569
216.853
208.807
200.467
191.866
183.043
174.032
164.872
155.599
146.25
136.862
127.471
118.111
108.816
99.619
90.551
81.641
72.918
64.408
56.135
48.12
40.384
32.943
25.814
19.009
12.54
6.416
0.644
-4.772
-9.828
-14.523
-18.858
-22.837
-26.465
-29.748
-32.695
-35.318
-37.627
-39.637
-41.363
-42.818
-44.021
-44.989
-45.738
-46.288
-46.656
-46.861
-46.922
-46.857
-46.684
-46.42
-46.083
-45.687
-45.248
-44.781
-44.298
-43.813
-43.336
-42.88
-42.452
-42.064
-41.722
-41.434
-41.207
-41.044
-40.95
-40.927
-40.979
-41.105
-41.306
-41.582
-41.93
-42.349
-42.836
-43.387
-43.999
-44.667
-45.386
-46.15
-46.955
-47.795
-48.663
-49.555
-50.465
-51.388
-52.319
-53.253
-54.184
-55.11
-56.024
-56.924
-57.805
-58.664
-59.498
-60.302
-61.076
-61.815
-62.517
-63.181
-63.803
-64.383
-64.917
-65.404
-65.844
-66.233
-66.572
-66.858
-67.091
-67.27
-67.394
-67.462
-67.474
-67.428
-67.323
-67.159
-66.935
-66.649
-66.301
-65.891
-65.417
-64.88
-64.279
-63.613
-62.881
-62.083
-61.217
-60.284
-59.281
-58.211
-57.072
-55.867
-54.597
-53.266
-51.874
-50.426
-48.924
-47.373
-45.777
-44.142
-42.473
-40.774
-39.055
-37.322
-35.585
-33.853
-32.134
-30.438
-28.777
-27.159
-25.595
-24.092
-22.66
-21.305
-20.036
-18.862
-17.791
-16.829
-15.988
-15.275
-14.702
-14.278
-14.008
-13.896
-13.945
-14.154
-14.524
-15.051
-15.726
-16.545
-17.505
-18.607
-19.857
-21.257
-22.792
-24.449
-26.211
-28.049
-29.94
-31.859
-33.766
-35.636
-37.463
-39.249
-41.01
-42.763
-44.49
-46.167
-47.765
-49.254
-50.625
-51.875
-53.001
-54.034
-55.024
-56.032
-57.157
-58.472
-59.986
-61.689
-63.525
-65.432
-67.418
-69.51
-71.709
-74.019
-76.4
-78.819
-81.307
-83.794
-86.084
-87.888
-88.792
-88.5
-86.978
-84.183
-80.038
-74.692
-68.304
-61.32
-54.603
-48.644
-43.729
-40.393
-38.738
-38.604
-39.136
-37.81
-33.117
-24.979
-14.784
-6.064
1.295
9.968
23.431
46.916
80.082
120.079
162.976
199.991
223.424
221.86
182.273
98.84
-30.165
-194.154
-371.254
-539.623
-675.763
-762.33
-794.486
-772.499
-703.225
-603.139
-489.128
-379.128
-292.744
-235.991
-205.666
-193.398
-182.62
-165.226
-141.612
-115.035
-93.937
-82.026
-77.382
-76.963
-76.255
-72.78
-66.733
-58.807
-49.916
-40.761
-31.758
-23.536
-16.855
-12.374
-10.299
-10.423
-12.45
-15.973
-20.568
-25.79
-31.073
-35.879
-39.907
-43.04
-45.253
-46.588
-47.061
-46.679
-45.521
-43.696
-41.307
-38.436
-35.129
-31.434
-27.441
-23.282
-19.105
-15.021
-11.086
-7.33
-3.766
-0.403
2.758
5.748
8.621
11.432
14.231
17.059
19.947
22.941
26.093
29.466
33.121
37.103
41.439
46.146
51.233
56.703
62.553
68.765
75.31
82.163
89.3
96.7
104.343
112.2
120.24
128.431
136.738
145.13
153.573
162.033
170.475
178.867
187.175
195.367
203.412
211.276
218.925
226.324
233.438
240.23
246.669
252.72
258.352
263.533
268.237
272.437
276.111
279.237
281.797
283.777
285.163
285.946
286.118
285.677
284.62
282.95
280.672
277.793
274.322
270.272
265.658
260.497
254.809
248.615
241.939
234.807
227.246
219.286
210.958
202.295
193.328
184.094
174.628
164.966
155.146
145.204
135.177
125.103
115.017
104.955
94.951
85.039
75.249
65.613
56.16
46.915
37.906
29.155
20.684
12.514
4.66
-2.859
-10.03
-16.842
-23.285
-29.349
-35.03
-40.322
-45.224
-49.735
-53.857
-57.593
-60.947
-63.926
-66.54
-68.797
-70.71
-72.291
-73.555
-74.517
-75.193
-75.6
-75.755
-75.676
-75.383
-74.891
-74.221
-73.389
-72.415
-71.315
-70.108
-68.811
-67.44
-66.012
-64.542
-63.046
-61.537
-60.03
-58.537
-57.072
-55.644
-54.266
-52.947
-51.696
-50.522
-49.431
-48.43
-47.525
-46.718
-46.013
-45.411
-44.915
-44.523
-44.236
-44.051
-43.968
-43.982
-44.091
-44.292
-44.58
-44.95
-45.398
-45.918
-46.503
-47.148
-47.846
-48.591
-49.374
-50.19
-51.03
-51.888
-52.755
-53.623
-54.486
-55.334
-56.161
-56.958
-57.718
-58.435
-59.101
-59.712
-60.261
-60.744
-61.157
-61.495
-61.755
-61.935
-62.03
-62.039
-61.96
-61.792
-61.532
-61.182
-60.74
-60.208
-59.587
-58.879
-58.088
-57.217
-56.269
-55.249
-54.163
-53.017
-51.817
-50.571
-49.286
-47.972
-46.636
-45.289
-43.94
-42.597
-41.269
-39.965
-38.694
-37.465
-36.285
-35.164
-34.108
-33.125
-32.225
-31.413
-30.699
-30.087
-29.584
-29.196
-28.926
-28.778
-28.753
-28.848
-29.062
-29.389
-29.822
-30.354
-30.975
-31.677
-32.452
-33.295
-34.198
-35.155
-36.16
-37.202
-38.277
-39.372
-40.481
-41.596
-42.711
-43.825
-44.943
-46.067
-47.195
-48.321
-49.418
-50.462
-51.43
-52.291
-53.018
-53.585
-53.969
-54.174
-54.217
-54.113
-53.871
-53.481
-52.931
-52.228
-51.391
-50.468
-49.526
-48.617
-47.807
-47.203
-46.826
-46.64
-46.542
-46.279
-45.622
-44.432
-42.494
-39.66
-36.078
-32.006
-27.88
-24.368
-21.864
-20.632
-21.178
-23.713
-27.954
-33.399
-39.119
-43.891
-46.861
-47.138
-43.421
-34.632
-20.002
0.897
27.985
59.436
91.421
119.886
140.401
152.66
162.656
175.073
191.041
202.85
190.221
133.3
20.783
-145.034
-341.883
-537.323
-700.945
-808.118
-848.274
-825.807
-750.083
-637.653
-509.051
-380.666
-270.333
-189.123
-137.018
-110.82
-100.349
-96.073
-93.462
-87.711
-78.231
-64.865
-48.384
-33.483
-22.627
-17.78
-18.353
-19.708
-19.422
-16.235
-10.221
-3.91
1.382
5.263
7.213
7.561
6.647
4.547
1.723
-1.338
-4.337
-6.928
-8.778
-9.728
-9.693
-8.658
-6.751
-4.108
-0.84
2.93
7.082
11.497
16.055
20.638
25.122
29.413
33.447
37.174
40.571
43.634
46.359
48.769
50.918
52.858
54.644
56.334
57.971
59.613
61.325
63.174
65.23
67.545
70.156
73.089
76.367
79.999
83.993
88.347
93.041
98.062
103.4
109.04
114.972
121.181
127.644
134.337
141.235
148.315
155.551
162.918
170.386
177.929
185.518
193.124
200.72
208.275
215.756
223.126
230.352
237.396
244.224
250.8
257.088
263.055
268.668
273.896
278.712
283.088
286.999
290.421
293.332
295.715
297.552
298.829
299.535
299.658
299.194
298.139
296.491
294.253
291.427
288.022
284.047
279.515
274.441
268.842
262.738
256.151
249.107
241.632
233.755
225.506
216.918
208.023
198.857
189.454
179.851
170.083
160.187
150.198
140.154
130.09
120.04
110.04
100.124
90.324
80.673
71.201
61.937
52.91
44.144
35.666
27.497
19.658
12.168
5.043
-1.704
-8.058
-14.011
-19.556
-24.686
-29.399
-33.694
-37.573
-41.039
-44.098
-46.757
-49.027
-50.918
-52.442
-53.614
-54.45
-54.965
-55.179
-55.109
-54.775
-54.197
-53.396
-52.395
-51.213
-49.874
-48.4
-46.811
-45.131
-43.379
-41.576
-39.744
-37.9
-36.064
-34.252
-32.482
-30.768
-29.126
-27.567
-26.104
-24.746
-23.504
-22.383
-21.391
-20.532
-19.81
-19.226
-18.782
-18.477
-18.309
-18.277
-18.377
-18.603
-18.951
-19.414
-19.983
-20.651
-21.408
-22.244
-23.148
-24.112
-25.122
-26.169
-27.241
-28.327
-29.416
-30.498
-31.561
-32.595
-33.589
-34.536
-35.425
-36.248
-36.997
-37.666
-38.249
-38.741
-39.137
-39.434
-39.63
-39.723
-39.712
-39.596
-39.375
-39.05
-38.624
-38.101
-37.484
-36.779
-35.992
-35.131
-34.203
-33.217
-32.181
-31.106
-30
-28.873
-27.735
-26.596
-25.468
-24.361
-23.287
-22.255
-21.278
-20.367
-19.535
-18.79
-18.143
-17.602
-17.172
-16.861
-16.673
-16.611
-16.676
-16.871
-17.199
-17.664
-18.267
-19.009
-19.887
-20.897
-22.032
-23.284
-24.639
-26.085
-27.606
-29.194
-30.841
-32.545
-34.308
-36.125
-37.99
-39.887
-41.798
-43.697
-45.554
-47.336
-49.017
-50.579
-52.012
-53.315
-54.492
-55.535
-56.445
-57.208
-57.791
-58.168
-58.32
-58.253
-57.989
-57.585
-57.1
-56.591
-56.13
-55.77
-55.563
-55.551
-55.755
-56.175
-56.811
-57.705
-58.848
-60.188
-61.604
-62.843
-63.685
-63.951
-63.382
-61.77
-59.147
-55.686
-51.757
-47.985
-44.75
-42.301
-41.121
-41.421
-42.929
-45.171
-47.275
-48.111
-46.974
-43.197
-35.753
-23.832
-6.943
15.152
42.337
73.102
104.313
132.633
154.121
167.814
178.746
190.796
204.967
217.13
210.389
167.706
79.588
-58.314
-230.985
-412.365
-578.592
-700.471
-760.483
-758.039
-695.728
-591.023
-468.6
-345.648
-242.401
-171.355
-130.023
-113.771
-110.576
-105.841
-95.493
-80.015
-63.627
-53.378
-50.581
-52.394
-55.194
-55.27
-51.576
-45.116
-37.07
-28.592
-20.422
-13.302
-8.133
-5.35
-4.947
-6.585
-9.692
-13.764
-18.393
-23.069
-27.255
-30.621
-33
-34.375
-34.844
-34.467
-33.288
-31.398
-28.914
-25.948
-22.621
-19.045
-15.31
-11.538
-7.833
-4.284
-0.965
2.087
4.855
7.338
9.546
11.504
13.244
14.809
16.247
17.608
18.951
20.339
21.84
23.527
25.46
27.683
30.232
33.129
36.388
40.018
44.017
48.376
53.087
58.141
63.525
69.23
75.241
81.537
88.094
94.885
101.882
109.059
116.387
123.839
131.385
138.995
146.638
154.286
161.906
169.462
176.919
184.238
191.381
198.311
204.99
211.382
217.45
223.16
228.481
233.381
237.833
241.809
245.283
248.233
250.64
252.485
253.755
254.436
254.521
254.005
252.883
251.159
248.834
245.917
242.415
238.343
233.715
228.549
222.867
216.692
210.05
202.968
195.477
187.608
179.394
170.87
162.071
153.034
143.796
134.393
124.864
115.245
105.575
95.889
86.225
76.618
67.102
57.711
48.476
39.428
30.595
22.004
13.68
5.647
-2.076
-9.469
-16.515
-23.2
-29.512
-35.441
-40.98
-46.124
-50.869
-55.215
-59.163
-62.715
-65.876
-68.653
-71.054
-73.088
-74.766
-76.1
-77.105
-77.795
-78.187
-78.297
-78.142
-77.742
-77.114
-76.277
-75.251
-74.055
-72.707
-71.226
-69.632
-67.942
-66.175
-64.347
-62.477
-60.579
-58.668
-56.759
-54.865
-52.998
-51.168
-49.388
-47.664
-46.008
-44.425
-42.922
-41.507
-40.183
-38.954
-37.825
-36.796
-35.869
-35.045
-34.322
-33.699
-33.174
-32.745
-32.409
-32.161
-31.998
-31.915
-31.906
-31.967
-32.091
-32.272
-32.504
-32.778
-33.089
-33.43
-33.793
-34.174
-34.564
-34.959
-35.351
-35.736
-36.107
-36.459
-36.786
-37.082
-37.343
-37.562
-37.736
-37.86
-37.931
-37.944
-37.898
-37.791
-37.621
-37.386
-37.086
-36.719
-36.286
-35.787
-35.223
-34.595
-33.905
-33.155
-32.349
-31.491
-30.586
-29.639
-28.654
-27.637
-26.594
-25.529
-24.45
-23.361
-22.267
-21.177
-20.099
-19.039
-18.005
-17.006
-16.051
-15.147
-14.306
-13.535
-12.839
-12.226
-11.699
-11.265
-10.927
-10.688
-10.547
-10.507
-10.571
-10.743
-11.025
-11.418
-11.919
-12.526
-13.239
-14.056
-14.97
-15.973
-17.055
-18.211
-19.443
-20.757
-22.155
-23.626
-25.16
-26.744
-28.363
-29.996
-31.609
-33.154
-34.581
-35.858
-36.974
-37.924
-38.7
-39.288
-39.664
-39.81
-39.734
-39.446
-38.954
-38.264
-37.395
-36.404
-35.402
-34.53
-33.922
-33.673
-33.84
-34.469
-35.612
-37.302
-39.549
-42.317
-45.513
-49.074
-52.978
-57.177
-61.581
-66.029
-70.257
-73.987
-76.997
-79.025
-79.76
-78.935
-76.345
-71.948
-65.929
-58.566
-50.132
-41.031
-31.778
-22.796
-14.296
-6.172
2.024
11.067
21.874
35.582
53.728
75.947
99.584
122.046
140.072
155.039
173.665
197.875
225.851
246.05
236.255
182.16
77.598
-70.235
-237.008
-398.609
-533.3
-625.211
-669.98
-669.189
-627.786
-554.708
-463.093
-365.88
-277.406
-209.564
-163.829
-136.467
-118.928
-101.999
-83.408
-65.6
-53.437
-49.973
-54.147
-61.952
-68.291
-70.513
-68.239
-61.935
-52.842
-42.041
-30.299
-18.945
-9.39
-2.297
2.089
3.92
3.702
1.907
-0.997
-4.368
-7.545
-10.129
-11.922
-12.882
-13.095
-12.6
-11.416
-9.608
-7.27
-4.485
-1.318
2.165
5.91
9.834
13.812
17.745
21.544
25.146
28.521
31.659
34.554
37.214
39.662
41.923
44.038
46.047
47.988
49.906
51.852
53.884
56.07
58.464
61.109
64.034
67.26
70.796
74.651
78.823
83.303
88.08
93.142
98.478
104.079
109.93
116.013
122.304
128.779
135.411
142.175
149.048
156.002
163.011
170.046
177.081
184.088
191.04
197.904
204.648
211.236
217.635
223.812
229.733
235.365
240.677
245.637
250.219
254.395
258.142
261.436
264.256
266.583
268.401
269.696
270.457
270.676
270.346
269.463
268.027
266.041
263.508
260.436
256.834
252.715
248.094
242.988
237.417
231.403
224.969
218.142
210.95
203.423
195.591
187.485
179.14
170.589
161.866
153.005
144.04
135.006
125.936
116.863
107.819
98.836
89.943
81.17
72.543
64.089
55.833
47.796
40.001
32.466
25.208
18.244
11.585
5.245
-0.768
-6.447
-11.786
-16.783
-21.435
-25.743
-29.709
-33.339
-36.636
-39.609
-42.267
-44.619
-46.676
-48.452
-49.959
-51.212
-52.225
-53.013
-53.593
-53.979
-54.187
-54.234
-54.134
-53.904
-53.558
-53.111
-52.578
-51.972
-51.307
-50.595
-49.848
-49.077
-48.293
-47.505
-46.723
-45.954
-45.206
-44.485
-43.798
-43.15
-42.545
-41.989
-41.482
-41.029
-40.631
-40.289
-40.004
-39.775
-39.603
-39.487
-39.425
-39.416
-39.46
-39.553
-39.694
-39.882
-40.115
-40.39
-40.705
-41.059
-41.448
-41.871
-42.326
-42.81
-43.322
-43.86
-44.422
-45.005
-45.608
-46.228
-46.862
-47.507
-48.161
-48.819
-49.48
-50.138
-50.793
-51.439
-52.074
-52.695
-53.3
-53.884
-54.445
-54.979
-55.482
-55.952
-56.384
-56.776
-57.123
-57.422
-57.671
-57.867
-58.008
-58.09
-58.112
-58.071
-57.966
-57.793
-57.551
-57.239
-56.855
-56.4
-55.873
-55.278
-54.617
-53.891
-53.104
-52.259
-51.362
-50.416
-49.426
-48.396
-47.331
-46.238
-45.124
-43.995
-42.861
-41.729
-40.607
-39.506
-38.434
-37.4
-36.411
-35.473
-34.595
-33.781
-33.038
-32.368
-31.775
-31.265
-30.845
-30.52
-30.297
-30.179
-30.168
-30.267
-30.479
-30.801
-31.227
-31.747
-32.351
-33.037
-33.805
-34.661
-35.605
-36.626
-37.716
-38.868
-40.067
-41.292
-42.507
-43.661
-44.715
-45.655
-46.48
-47.203
-47.834
-48.368
-48.792
-49.106
-49.311
-49.413
-49.408
-49.282
-49.048
-48.755
-48.503
-48.433
-48.649
-49.202
-50.102
-51.334
-52.879
-54.742
-56.926
-59.396
-62.105
-64.985
-68.011
-71.222
-74.56
-77.843
-80.734
-82.715
-83.413
-82.754
-80.687
-77.13
-72.212
-66.083
-59.179
-52.564
-46.962
-42.492
-39.474
-37.932
-37.396
-37.894
-37.773
-34.501
-27.842
-16.957
-3.259
11.092
28.661
49.018
72.135
98.147
121.495
143.386
166.438
189.081
208.958
210.167
170.783
76.936
-74.554
-265.136
-458.819
-620.736
-724.887
-761.347
-740.971
-679.496
-590.355
-488.744
-381.77
-278.219
-193.611
-133.374
-99.526
-87.634
-82.092
-74.875
-64.021
-50.767
-42.776
-42.871
-48.457
-56.26
-61.635
-62.468
-59.569
-53.948
-46.724
-38.818
-30.93
-23.961
-18.815
-15.855
-14.909
-15.6
-17.451
-20.017
-22.89
-25.6
-27.683
-28.891
-29.175
-28.573
-27.199
-25.143
-22.472
-19.29
-15.712
-11.848
-7.794
-3.635
0.548
4.673
8.666
12.463
16.028
19.345
22.412
25.241
27.855
30.284
32.568
34.752
36.877
38.993
41.152
43.412
45.837
48.481
51.382
54.57
58.068
61.887
66.038
70.52
75.321
80.433
85.845
91.544
97.522
103.761
110.243
116.944
123.837
130.897
138.098
145.415
152.82
160.285
167.781
175.28
182.755
190.176
197.51
204.723
211.779
218.643
225.28
231.655
237.733
243.479
248.862
253.851
258.418
262.534
266.175
269.317
271.939
274.023
275.552
276.513
276.897
276.696
275.905
274.525
272.558
270.008
266.883
263.195
258.956
254.183
248.895
243.113
236.861
230.165
223.052
215.553
207.7
199.525
191.065
182.353
173.428
164.326
155.085
145.743
136.336
126.903
117.48
108.103
98.806
89.624
80.588
71.73
63.078
54.659
46.499
38.62
31.042
23.785
16.864
10.292
4.081
-1.76
-7.224
-12.308
-17.009
-21.327
-25.265
-28.826
-32.018
-34.848
-37.325
-39.462
-41.27
-42.766
-43.963
-44.879
-45.532
-45.939
-46.12
-46.094
-45.88
-45.498
-44.968
-44.31
-43.542
-42.684
-41.753
-40.766
-39.741
-38.693
-37.637
-36.587
-35.555
-34.552
-33.589
-32.675
-31.819
-31.027
-30.306
-29.66
-29.095
-28.612
-28.215
-27.905
-27.682
-27.546
-27.496
-27.529
-27.643
-27.835
-28.101
-28.436
-28.836
-29.296
-29.811
-30.375
-30.983
-31.629
-32.307
-33.012
-33.737
-34.478
-35.228
-35.984
-36.74
-37.493
-38.238
-38.972
-39.691
-40.392
-41.072
-41.727
-42.354
-42.951
-43.515
-44.042
-44.53
-44.977
-45.382
-45.742
-46.056
-46.324
-46.544
-46.715
-46.836
-46.907
-46.927
-46.896
-46.814
-46.681
-46.496
-46.262
-45.978
-45.645
-45.265
-44.838
-44.365
-43.847
-43.285
-42.679
-42.03
-41.339
-40.61
-39.845
-39.047
-38.22
-37.368
-36.497
-35.61
-34.713
-33.811
-32.907
-32.008
-31.119
-30.244
-29.39
-28.562
-27.766
-27.008
-26.295
-25.634
-25.032
-24.495
-24.028
-23.636
-23.323
-23.093
-22.948
-22.888
-22.915
-23.03
-23.236
-23.537
-23.933
-24.424
-25.006
-25.678
-26.432
-27.261
-28.155
-29.102
-30.092
-31.118
-32.18
-33.279
-34.421
-35.607
-36.833
-38.089
-39.366
-40.643
-41.894
-43.095
-44.22
-45.257
-46.199
-47.046
-47.801
-48.46
-49.017
-49.458
-49.753
-49.879
-49.829
-49.608
-49.241
-48.779
-48.277
-47.805
-47.452
-47.286
-47.366
-47.739
-48.409
-49.39
-50.725
-52.399
-54.357
-56.499
-58.579
-60.368
-61.741
-62.454
-62.218
-61.011
-58.898
-56.142
-53.448
-51.352
-50.114
-50.24
-52.151
-55.694
-60.593
-66.162
-70.889
-73.558
-73.233
-68.599
-58.444
-42.079
-18.965
11.069
45.853
81.643
115.226
142.534
162.372
178.953
193.697
205.563
210.623
194.382
143.764
52.761
-81.75
-247.129
-420.009
-577.697
-693.618
-750.402
-748.363
-694.552
-604.181
-496.701
-383.504
-274.554
-181.088
-110.272
-67.86
-54.989
-64.112
-82.354
-98.27
-104.399
-97.579
-82.928
-67.082
-53.276
-44.976
-40.646
-35.529
-28.41
-18.502
-6.598
3.846
11.39
15.999
17.623
17.099
15.125
11.862
7.822
3.756
0.079
-2.965
-5.225
-6.765
-7.6
-7.662
-6.986
-5.666
-3.776
-1.401
1.388
4.556
8.035
11.733
15.54
19.317
22.966
26.428
29.664
32.667
35.425
37.927
40.187
42.244
44.143
45.937
47.671
49.38
51.112
52.923
54.873
57.031
59.443
62.138
65.138
68.454
72.096
76.071
80.375
84.99
89.901
95.095
100.56
106.284
112.251
118.437
124.818
131.367
138.059
144.871
151.777
158.747
165.756
172.774
179.776
186.734
193.62
200.401
207.044
213.517
219.787
225.821
231.586
237.051
242.184
246.956
251.341
255.313
258.846
261.919
264.51
266.602
268.177
269.221
269.724
269.675
269.068
267.899
266.167
263.873
261.022
257.619
253.674
249.199
244.207
238.715
232.743
226.311
219.443
212.163
204.5
196.482
188.138
179.5
170.602
161.476
152.157
142.679
133.077
123.386
113.642
103.88
94.133
84.435
74.82
65.319
55.964
46.785
37.809
29.063
20.573
12.362
4.45
-3.142
-10.397
-17.3
-23.839
-30.001
-35.778
-41.165
-46.155
-50.747
-54.941
-58.738
-62.142
-65.159
-67.795
-70.06
-71.964
-73.52
-74.742
-75.644
-76.242
-76.554
-76.598
-76.393
-75.958
-75.314
-74.481
-73.479
-72.329
-71.05
-69.664
-68.19
-66.647
-65.053
-63.426
-61.784
-60.142
-58.516
-56.92
-55.366
-53.868
-52.435
-51.077
-49.804
-48.622
-47.538
-46.559
-45.687
-44.926
-44.278
-43.744
-43.323
-43.014
-42.816
-42.724
-42.735
-42.845
-43.048
-43.339
-43.711
-44.159
-44.675
-45.253
-45.886
-46.567
-47.288
-48.042
-48.823
-49.625
-50.44
-51.264
-52.089
-52.912
-53.727
-54.53
-55.315
-56.079
-56.819
-57.531
-58.213
-58.862
-59.476
-60.054
-60.596
-61.101
-61.57
-62.002
-62.398
-62.759
-63.086
-63.379
-63.639
-63.867
-64.065
-64.231
-64.368
-64.476
-64.555
-64.605
-64.627
-64.62
-64.584
-64.519
-64.422
-64.294
-64.133
-63.939
-63.71
-63.447
-63.148
-62.812
-62.439
-62.026
-61.573
-61.078
-60.538
-59.952
-59.319
-58.635
-57.901
-57.115
-56.277
-55.387
-54.446
-53.456
-52.419
-51.336
-50.212
-49.049
-47.853
-46.63
-45.384
-44.122
-42.851
-41.579
-40.313
-39.063
-37.834
-36.635
-35.473
-34.356
-33.291
-32.286
-31.349
-30.487
-29.709
-29.023
-28.437
-27.96
-27.597
-27.355
-27.24
-27.257
-27.408
-27.694
-28.112
-28.661
-29.333
-30.124
-31.024
-32.023
-33.111
-34.28
-35.522
-36.829
-38.193
-39.605
-41.057
-42.543
-44.051
-45.574
-47.105
-48.634
-50.16
-51.683
-53.199
-54.704
-56.184
-57.609
-58.957
-60.202
-61.31
-62.25
-62.991
-63.509
-63.805
-63.895
-63.788
-63.493
-62.997
-62.283
-61.369
-60.281
-59.072
-57.817
-56.548
-55.327
-54.261
-53.389
-52.703
-52.101
-51.297
-50.038
-48.17
-45.49
-41.911
-37.548
-32.554
-27.412
-22.898
-19.571
-17.999
-18.743
-21.869
-27.164
-34.2
-41.774
-48.302
-52.419
-52.532
-46.957
-34.517
-14.256
14.44
49.238
85.28
118.257
143.662
162.657
182.529
206.122
232.557
249.515
233.271
167.915
46.298
-120.794
-303.171
-472.32
-603.092
-680.506
-705.73
-683.104
-619.707
-529.084
-424.706
-322.189
-239.878
-184.906
-155.065
-142.739
-133.136
-118.477
-99.092
-78.432
-63.923
-58.423
-59.718
-64.169
-67.037
-66.206
-62.018
-55.17
-46.736
-37.558
-28.141
-19.441
-12.511
-7.8
-5.336
-4.844
-5.828
-7.844
-10.518
-13.354
-15.813
-17.588
-18.533
-18.63
-17.976
-16.627
-14.612
-12.01
-8.923
-5.442
-1.674
2.283
6.35
10.414
14.38
18.172
21.722
24.997
27.982
30.676
33.09
35.246
37.17
38.894
40.458
41.902
43.279
44.649
46.08
47.65
49.419
51.435
53.739
56.358
59.31
62.61
66.256
70.243
74.571
79.24
84.258
89.63
95.345
101.384
107.717
114.301
121.099
128.073
135.175
142.364
149.612
156.898
164.223
171.593
178.995
186.403
193.774
201.064
208.251
215.317
222.248
229.049
235.72
242.268
248.73
255.12
261.416
267.575
273.507
279.105
284.294
289.015
293.229
296.908
300.002
302.462
304.254
305.322
305.615
305.069
303.585
301.091
297.575
293.058
287.622
281.386
274.436
266.844
258.684
250.011
240.892
231.396
221.569
211.469
201.167
190.75
180.339
170.045
159.926
150.019
140.319
130.788
121.415
112.196
103.119
94.19
85.417
76.808
68.394
60.208
52.264
44.566
37.096
29.836
22.791
15.972
9.405
3.129
-2.831
-8.454
-13.712
-18.59
-23.081
-27.182
-30.906
-34.271
-37.29
-39.974
-42.329
-44.36
-46.08
-47.503
-48.646
-49.528
-50.168
-50.587
-50.808
-50.853
-50.742
-50.491
-50.115
-49.628
-49.042
-48.371
-47.628
-46.826
-45.98
-45.101
-44.202
-43.295
-42.393
-41.505
-40.639
-39.804
-39.006
-38.251
-37.544
-36.89
-36.292
-35.752
-35.273
-34.856
-34.501
-34.207
-33.975
-33.803
-33.688
-33.629
-33.622
-33.664
-33.753
-33.884
-34.053
-34.258
-34.494
-34.759
-35.047
-35.357
-35.684
-36.025
-36.377
-36.735
-37.097
-37.459
-37.818
-38.173
-38.519
-38.854
-39.178
-39.487
-39.78
-40.055
-40.312
-40.55
-40.768
-40.966
-41.144
-41.302
-41.441
-41.562
-41.665
-41.752
-41.823
-41.88
-41.923
-41.955
-41.976
-41.988
-41.992
-41.989
-41.98
-41.965
-41.946
-41.922
-41.894
-41.861
-41.824
-41.783
-41.737
-41.686
-41.631
-41.57
-41.504
-41.431
-41.35
-41.261
-41.16
-41.047
-40.92
-40.776
-40.614
-40.43
-40.223
-39.991
-39.731
-39.442
-39.121
-38.765
-38.374
-37.943
-37.472
-36.96
-36.404
-35.807
-35.167
-34.485
-33.764
-33.005
-32.21
-31.383
-30.525
-29.64
-28.731
-27.803
-26.859
-25.904
-24.945
-23.986
-23.033
-22.094
-21.175
-20.283
-19.427
-18.615
-17.853
-17.148
-16.507
-15.935
-15.438
-15.022
-14.688
-14.44
-14.282
-14.219
-14.253
-14.388
-14.623
-14.957
-15.384
-15.898
-16.491
-17.155
-17.878
-18.651
-19.469
-20.329
-21.238
-22.199
-23.205
-24.245
-25.298
-26.339
-27.344
-28.296
-29.17
-29.949
-30.626
-31.197
-31.67
-32.055
-32.348
-32.53
-32.56
-32.402
-32.046
-31.502
-30.814
-30.044
-29.245
-28.47
-27.771
-27.199
-26.79
-26.558
-26.505
-26.601
-26.821
-27.201
-27.828
-28.73
-29.846
-30.971
-31.739
-31.817
-30.958
-28.898
-25.407
-20.414
-14.099
-7.054
-0.232
5.444
9.209
10.5
9.087
5.037
-1.082
-7.899
-13.559
-16.189
-13.766
-4.464
12.899
39.373
73.924
112.408
150.466
183.498
209.765
233.612
257.671
280.721
296.258
286.674
236.358
138.36
-7.136
-182.454
-363.758
-530.003
-657.675
-732.886
-749.997
-706.229
-611.433
-484.544
-347.623
-226.15
-138.75
-88.693
-69.102
-65.613
-61.977
-51.811
-36.523
-21.189
-12.857
-13.109
-18.724
-25.559
-29.206
-28.001
-22.706
-14.457
-4.579
5.891
16.112
25.108
31.992
36.383
38.397
38.351
36.69
33.876
30.373
26.719
23.427
20.774
18.827
17.582
16.967
16.94
17.482
18.509
19.911
21.605
23.526
25.637
27.914
30.285
32.642
34.888
36.952
38.799
40.429
41.836
43.011
43.966
44.732
45.36
45.908
46.426
46.956
47.544
48.239
49.104
50.208
51.607
53.34
55.435
57.903
60.763
64.032
67.717
71.817
76.318
81.194
86.425
92.001
97.899
104.094
110.549
117.221
124.08
131.118
138.32
145.676
153.161
160.73
168.345
175.968
183.57
191.144
198.666
206.096
213.411
220.592
227.629
234.532
241.263
247.742
253.9
259.665
264.988
269.855
274.237
278.101
281.411
284.12
286.197
287.636
288.408
288.467
287.766
286.241
283.888
280.775
276.953
272.474
267.378
261.673
255.393
248.587
241.299
233.569
225.43
216.901
208.032
198.896
189.57
180.141
170.655
161.103
151.493
141.841
132.169
122.515
112.904
103.342
93.854
84.479
75.257
66.233
57.43
48.854
40.512
32.406
24.556
16.999
9.766
2.875
-3.654
-9.808
-15.571
-20.924
-25.858
-30.382
-34.505
-38.236
-41.585
-44.551
-47.141
-49.366
-51.239
-52.777
-53.996
-54.915
-55.55
-55.924
-56.059
-55.978
-55.703
-55.251
-54.641
-53.892
-53.025
-52.058
-51.011
-49.902
-48.749
-47.569
-46.38
-45.199
-44.04
-42.916
-41.839
-40.821
-39.871
-38.997
-38.208
-37.51
-36.906
-36.402
-35.999
-35.701
-35.506
-35.416
-35.429
-35.542
-35.754
-36.059
-36.455
-36.936
-37.498
-38.134
-38.839
-39.606
-40.43
-41.304
-42.221
-43.175
-44.16
-45.168
-46.193
-47.229
-48.27
-49.311
-50.345
-51.368
-52.376
-53.363
-54.327
-55.264
-56.171
-57.046
-57.885
-58.689
-59.455
-60.182
-60.87
-61.518
-62.127
-62.696
-63.224
-63.713
-64.163
-64.572
-64.942
-65.272
-65.562
-65.814
-66.025
-66.198
-66.331
-66.423
-66.476
-66.489
-66.461
-66.392
-66.281
-66.129
-65.934
-65.697
-65.417
-65.092
-64.723
-64.309
-63.848
-63.341
-62.785
-62.18
-61.525
-60.818
-60.06
-59.25
-58.389
-57.478
-56.519
-55.513
-54.464
-53.375
-52.25
-51.093
-49.908
-48.701
-47.478
-46.245
-45.009
-43.777
-42.556
-41.355
-40.18
-39.039
-37.939
-36.889
-35.895
-34.968
-34.114
-33.339
-32.651
-32.059
-31.569
-31.187
-30.921
-30.774
-30.75
-30.854
-31.087
-31.452
-31.948
-32.57
-33.314
-34.174
-35.144
-36.22
-37.396
-38.663
-40.012
-41.442
-42.949
-44.534
-46.191
-47.898
-49.64
-51.402
-53.165
-54.919
-56.656
-58.351
-59.992
-61.573
-63.071
-64.482
-65.79
-66.957
-67.954
-68.746
-69.319
-69.702
-69.936
-70.053
-70.108
-70.148
-70.204
-70.341
-70.581
-70.928
-71.439
-72.135
-73.012
-74.1
-75.388
-76.898
-78.698
-80.703
-82.672
-84.336
-85.421
-85.79
-85.481
-84.391
-82.272
-79.088
-75.107
-70.889
-66.961
-63.63
-60.989
-58.964
-57.889
-57.222
-54.792
-49.685
-41.768
-32.17
-25.092
-19.748
-11.533
2.21
26.166
57.613
88.029
115.579
136.516
148.589
151.782
134.107
83.539
-6.004
-138.072
-300.202
-470.699
-629.037
-752.395
-825.18
-843.117
-806.402
-721.882
-605.878
-475.778
-350.871
-252.613
-188.658
-156.711
-147.906
-144.064
-135.299
-120.816
-103.333
-91.252
-88.171
-91.519
-97.628
-101.55
-100.981
-96.624
-89.53
-80.948
-71.825
-62.819
-54.835
-48.797
-45.101
-43.632
-44.045
-45.857
-48.563
-51.707
-54.772
-57.238
-58.837
-59.505
-59.257
-58.201
-56.43
-54.014
-51.073
-47.746
-44.132
-40.326
-36.402
-32.425
-28.507
-24.756
-21.245
-18.028
-15.123
-12.526
-10.239
-8.247
-6.508
-4.973
-3.587
-2.292
-1.044
0.209
1.528
2.976
4.623
6.53
8.735
11.273
14.166
17.43
21.078
25.111
29.521
34.296
39.428
44.907
50.724
56.867
63.317
70.049
77.04
84.266
91.702
99.323
107.099
115.002
123.002
131.07
139.177
147.29
155.372
163.389
171.301
179.07
186.659
194.03
201.145
207.966
214.458
220.588
226.323
231.632
236.487
240.859
244.724
248.061
250.848
253.07
254.712
255.762
256.213
256.059
255.299
253.933
251.966
249.403
246.254
242.533
238.255
233.437
228.102
222.271
215.973
209.233
202.083
194.554
186.68
178.495
170.035
161.337
152.438
143.376
134.188
124.912
115.585
106.245
96.928
87.67
78.504
69.464
60.582
51.887
43.408
35.172
27.203
19.524
12.156
5.115
-1.58
-7.916
-13.883
-19.47
-24.672
-29.483
-33.9
-37.926
-41.56
-44.808
-47.677
-50.172
-52.306
-54.089
-55.533
-56.655
-57.468
-57.991
-58.239
-58.233
-57.991
-57.532
-56.877
-56.046
-55.058
-53.933
-52.692
-51.354
-49.937
-48.46
-46.941
-45.397
-43.843
-42.296
-40.77
-39.277
-37.831
-36.442
-35.121
-33.876
-32.716
-31.646
-30.673
-29.801
-29.034
-28.372
-27.818
-27.371
-27.031
-26.795
-26.662
-26.626
-26.684
-26.832
-27.062
-27.371
-27.75
-28.194
-28.695
-29.246
-29.839
-30.467
-31.122
-31.797
-32.483
-33.174
-33.862
-34.54
-35.201
-35.838
-36.444
-37.013
-37.538
-38.015
-38.436
-38.797
-39.093
-39.321
-39.476
-39.556
-39.557
-39.478
-39.317
-39.073
-38.746
-38.335
-37.84
-37.263
-36.603
-35.864
-35.047
-34.154
-33.188
-32.152
-31.051
-29.886
-28.663
-27.385
-26.056
-24.681
-23.266
-21.815
-20.336
-18.834
-17.317
-15.792
-14.267
-12.75
-11.248
-9.771
-8.324
-6.916
-5.555
-4.248
-3.003
-1.827
-0.726
0.292
1.22
2.051
2.778
3.396
3.897
4.278
4.534
4.661
4.659
4.525
4.26
3.865
3.341
2.686
1.904
0.996
-0.034
-1.179
-2.429
-3.777
-5.207
-6.708
-8.269
-9.876
-11.52
-13.196
-14.9
-16.635
-18.404
-20.192
-21.987
-23.771
-25.515
-27.202
-28.813
-30.326
-31.725
-33.003
-34.147
-35.159
-36.04
-36.774
-37.338
-37.691
-37.799
-37.674
-37.337
-36.835
-36.228
-35.554
-34.865
-34.248
-33.771
-33.5
-33.482
-33.707
-34.181
-34.955
-36.032
-37.402
-38.965
-40.453
-41.648
-42.361
-42.315
-41.342
-39.428
-36.608
-33.239
-29.941
-27.141
-25.307
-25.008
-26.428
-29.446
-33.694
-38.162
-41.557
-42.79
-40.647
-33.67
-20.685
-0.874
26.376
59.632
95.146
129.037
157.114
178.404
197.873
219.843
244.977
266.415
265.32
221.645
123.559
-28.224
-214.045
-402.297
-563.386
-674.522
-725.134
-721.694
-674.761
-595.235
-499.333
-396.421
-297.122
-217.28
-160.71
-127.982
-114.648
-105.891
-94.795
-80.071
-62.664
-49.631
-43.653
-42.464
-43.348
-42.169
-37.042
-28.787
-18.445
-7.218
3.978
14.506
23.553
30.296
34.375
35.932
35.336
33.059
29.552
25.257
20.731
16.548
13.064
10.429
8.662
7.716
7.566
8.21
9.584
11.584
14.111
17.078
20.427
24.11
28.048
32.123
36.191
40.135
43.887
47.41
50.692
53.726
56.504
59.049
61.409
63.64
65.798
67.93
70.073
72.273
74.586
77.074
79.802
82.821
86.159
89.839
93.874
98.271
103.035
108.157
113.614
119.386
125.457
131.809
138.428
145.291
152.372
159.641
167.071
174.632
182.295
190.03
197.805
205.588
213.348
221.051
228.669
236.167
243.509
250.66
257.585
264.246
270.611
276.645
282.315
287.588
292.437
296.834
300.755
304.177
307.079
309.444
311.258
312.506
313.181
313.275
312.784
311.707
310.046
307.805
304.991
301.614
297.686
293.222
288.241
282.762
276.808
270.404
263.576
256.353
248.765
240.845
232.625
224.139
215.422
206.509
197.435
188.237
178.949
169.607
160.246
150.898
141.597
132.373
123.258
114.28
105.467
96.844
88.436
80.266
72.355
64.72
57.381
50.35
43.643
37.269
31.238
25.556
20.229
15.259
10.648
6.395
2.497
-1.049
-4.251
-7.115
-9.649
-11.865
-13.774
-15.387
-16.718
-17.782
-18.592
-19.164
-19.514
-19.657
-19.609
-19.387
-19.006
-18.483
-17.834
-17.073
-16.216
-15.279
-14.274
-13.217
-12.12
-10.996
-9.857
-8.713
-7.577
-6.457
-5.362
-4.301
-3.282
-2.312
-1.396
-0.54
0.251
0.974
1.625
2.201
2.701
3.124
3.467
3.732
3.918
4.026
4.056
4.011
3.891
3.698
3.435
3.103
2.705
2.244
1.722
1.142
0.508
-0.178
-0.913
-1.693
-2.515
-3.375
-4.27
-5.196
-6.149
-7.126
-8.123
-9.135
-10.159
-11.19
-12.224
-13.258
-14.286
-15.306
-16.313
-17.304
-18.276
-19.223
-20.144
-21.033
-21.887
-22.703
-23.478
-24.207
-24.887
-25.515
-26.088
-26.604
-27.06
-27.454
-27.785
-28.051
-28.25
-28.381
-28.445
-28.44
-28.366
-28.225
-28.018
-27.748
-27.418
-27.032
-26.593
-26.107
-25.578
-25.012
-24.416
-23.793
-23.151
-22.497
-21.839
-21.185
-20.544
-19.923
-19.333
-18.783
-18.285
-17.849
-17.484
-17.199
-17.001
-16.899
-16.9
-17.009
-17.23
-17.568
-18.028
-18.615
-19.337
-20.197
-21.199
-22.343
-23.628
-25.051
-26.608
-28.289
-30.082
-31.98
-33.977
-36.074
-38.276
-40.58
-42.978
-45.462
-48.017
-50.618
-53.237
-55.831
-58.357
-60.791
-63.122
-65.343
-67.461
-69.471
-71.357
-73.115
-74.726
-76.169
-77.432
-78.497
-79.37
-80.1
-80.767
-81.47
-82.315
-83.353
-84.606
-86.109
-87.873
-89.919
-92.262
-94.847
-97.645
-100.686
-103.945
-107.36
-110.778
-113.879
-116.324
-117.863
-118.262
-117.366
-115.218
-111.9
-107.697
-103.152
-98.762
-95.044
-92.366
-90.778
-90.076
-89.973
-89.844
-88.779
-86.011
-80.28
-70.353
-55.556
-35.027
-9.2
18.99
46.132
68.795
85.97
102.696
124.553
153.021
181.724
191.758
161.21
75.503
-66.876
-247.081
-433.55
-595.495
-707.196
-757.558
-751.668
-698.381
-612.795
-513.218
-412.099
-324.794
-262.692
-225.282
-208.848
-202.835
-194.573
-180.443
-161.414
-141.962
-128.534
-122.436
-121.356
-122.05
-120.805
-116.285
-109.076
-99.989
-90.002
-79.813
-69.989
-61.287
-54.468
-49.895
-47.485
-46.951
-47.896
-49.911
-52.585
-55.442
-57.985
-59.903
-61.085
-61.508
-61.215
-60.239
-58.59
-56.323
-53.535
-50.307
-46.713
-42.825
-38.699
-34.422
-30.123
-25.909
-21.862
-18.037
-14.453
-11.115
-8.033
-5.201
-2.589
-0.162
2.124
4.314
6.441
8.551
10.694
12.928
15.319
17.924
20.777
23.909
27.335
31.068
35.116
39.48
44.147
49.106
54.347
59.859
65.635
71.661
77.92
84.389
91.045
97.864
104.825
111.905
119.078
126.32
133.604
140.908
148.205
155.471
162.673
169.781
176.763
183.585
190.216
196.623
202.773
208.634
214.177
219.372
224.193
228.613
232.608
236.156
239.235
241.827
243.916
245.489
246.533
247.04
247.002
246.418
245.284
243.601
241.374
238.607
235.309
231.49
227.163
222.344
217.05
211.3
205.117
198.525
191.551
184.22
176.564
168.611
160.394
151.946
143.299
134.488
125.546
116.506
107.404
98.272
89.142
80.049
71.021
62.09
53.284
44.632
36.159
27.89
19.849
12.057
4.534
-2.701
-9.632
-16.244
-22.525
-28.462
-34.048
-39.276
-44.14
-48.637
-52.767
-56.53
-59.929
-62.968
-65.654
-67.994
-69.998
-71.676
-73.041
-74.105
-74.882
-75.387
-75.636
-75.645
-75.429
-75.006
-74.392
-73.604
-72.659
-71.574
-70.366
-69.05
-67.644
-66.162
-64.622
-63.037
-61.422
-59.791
-58.159
-56.536
-54.936
-53.37
-51.849
-50.381
-48.976
-47.641
-46.384
-45.209
-44.121
-43.125
-42.223
-41.417
-40.708
-40.097
-39.585
-39.169
-38.848
-38.621
-38.484
-38.435
-38.47
-38.584
-38.774
-39.034
-39.359
-39.744
-40.182
-40.667
-41.193
-41.751
-42.335
-42.937
-43.547
-44.159
-44.765
-45.356
-45.925
-46.464
-46.966
-47.425
-47.834
-48.187
-48.479
-48.705
-48.859
-48.937
-48.936
-48.854
-48.686
-48.433
-48.092
-47.664
-47.148
-46.545
-45.856
-45.082
-44.226
-43.29
-42.277
-41.193
-40.043
-38.833
-37.571
-36.265
-34.923
-33.554
-32.169
-30.777
-29.387
-28.009
-26.653
-25.329
-24.048
-22.82
-21.654
-20.561
-19.552
-18.636
-17.824
-17.125
-16.545
-16.091
-15.768
-15.58
-15.53
-15.619
-15.848
-16.22
-16.735
-17.393
-18.192
-19.129
-20.197
-21.389
-22.693
-24.094
-25.581
-27.14
-28.758
-30.427
-32.14
-33.89
-35.676
-37.496
-39.336
-41.183
-43.017
-44.811
-46.544
-48.199
-49.756
-51.203
-52.531
-53.73
-54.794
-55.723
-56.507
-57.124
-57.542
-57.739
-57.714
-57.485
-57.084
-56.555
-55.942
-55.303
-54.711
-54.236
-53.934
-53.836
-53.979
-54.413
-55.126
-56.066
-57.134
-58.137
-58.913
-59.382
-59.362
-58.598
-57.08
-54.956
-52.551
-50.448
-48.988
-48.2
-48.269
-49.502
-51.835
-54.909
-57.981
-59.92
-60.087
-58.219
-53.812
-46.276
-35.025
-19.575
0.006
23.656
50.453
77.45
101.641
119.901
132.085
144.439
161.335
182.347
200.841
197.508
154.077
61.908
-81.021
-258.645
-444.118
-613.241
-739.615
-807.302
-818.152
-778.444
-701.368
-603.823
-494.413
-382.683
-281.603
-199.535
-142.851
-112.322
-98.186
-89.37
-79.862
-67.678
-56.575
-51.768
-53.306
-58.364
-63.18
-64.112
-60.409
-53.103
-43.304
-32.39
-21.625
-12.064
-4.769
-0.255
1.573
1.055
-1.303
-4.931
-9.229
-13.545
-17.267
-20.055
-21.817
-22.561
-22.367
-21.295
-19.399
-16.791
-13.61
-9.97
-5.953
-1.631
2.931
7.619
12.272
16.768
21.022
24.987
28.652
32.006
35.036
37.757
40.213
42.454
44.536
46.511
48.416
50.305
52.241
54.295
56.545
59.051
61.853
64.981
68.454
72.287
76.492
81.066
85.994
91.264
96.865
102.788
109.026
115.564
122.382
129.456
136.762
144.276
151.975
159.834
167.825
175.92
184.092
192.314
200.557
208.791
216.981
225.09
233.083
240.921
248.568
255.985
263.133
269.978
276.482
282.612
288.337
293.623
298.443
302.768
306.573
309.835
312.535
314.654
316.176
317.089
317.385
317.057
316.102
314.518
312.307
309.477
306.035
301.994
297.367
292.174
286.433
280.168
273.406
266.175
258.504
250.426
241.977
233.191
224.106
214.761
205.194
195.447
185.559
175.569
165.52
155.45
145.398
135.404
125.504
115.735
106.133
96.73
87.559
78.65
70.03
61.726
53.761
46.156
38.931
32.101
25.68
19.68
14.109
8.972
4.274
0.016
-3.805
-7.192
-10.151
-12.691
-14.824
-16.56
-17.915
-18.905
-19.547
-19.862
-19.868
-19.587
-19.041
-18.254
-17.247
-16.046
-14.673
-13.153
-11.51
-9.767
-7.948
-6.074
-4.167
-2.248
-0.338
1.546
3.385
5.164
6.866
8.479
9.99
11.388
12.663
13.807
14.814
15.678
16.394
16.962
17.378
17.645
17.762
17.734
17.563
17.255
16.815
16.249
15.566
14.774
13.881
12.896
11.83
10.693
9.496
8.249
6.964
5.65
4.319
2.98
1.645
0.322
-0.98
-2.252
-3.485
-4.673
-5.807
-6.88
-7.888
-8.823
-9.683
-10.461
-11.154
-11.762
-12.282
-12.714
-13.058
-13.314
-13.484
-13.571
-13.576
-13.503
-13.356
-13.139
-12.857
-12.517
-12.126
-11.692
-11.221
-10.722
-10.203
-9.672
-9.138
-8.609
-8.093
-7.597
-7.131
-6.703
-6.322
-5.997
-5.736
-5.548
-5.443
-5.432
-5.52
-5.716
-6.024
-6.449
-6.995
-7.665
-8.459
-9.375
-10.413
-11.575
-12.862
-14.277
-15.818
-17.48
-19.259
-21.15
-23.147
-25.237
-27.404
-29.633
-31.915
-34.246
-36.63
-39.066
-41.543
-44.048
-46.568
-49.084
-51.574
-54.004
-56.325
-58.495
-60.49
-62.311
-63.968
-65.464
-66.792
-67.93
-68.862
-69.592
-70.126
-70.464
-70.604
-70.569
-70.409
-70.229
-70.151
-70.27
-70.645
-71.297
-72.24
-73.511
-75.146
-77.158
-79.548
-82.299
-85.338
-88.587
-91.904
-95.01
-97.628
-99.476
-100.181
-99.487
-97.42
-94.145
-90.025
-85.656
-81.403
-77.567
-74.721
-73.176
-72.77
-73.164
-73.569
-72.853
-70.378
-65.537
-57.105
-44.141
-26.061
-2.096
26.876
57.769
87.668
113.193
132.643
150.49
171.153
195.253
218.755
225.281
195.238
117.154
-12.852
-181.334
-362.356
-531.496
-665.085
-748.441
-779.647
-762.089
-704.273
-619.188
-519.978
-418.437
-327.555
-256.059
-204.916
-172.695
-152.228
-134.487
-116.897
-99.15
-83.638
-75.051
-73.699
-77.104
-82.265
-85.342
-84.753
-81.017
-74.805
-67.053
-58.592
-50.054
-42.308
-36.306
-32.444
-30.604
-30.466
-31.545
-33.389
-35.615
-37.748
-39.299
-40
-39.781
-38.671
-36.798
-34.26
-31.129
-27.519
-23.564
-19.392
-15.117
-10.837
-6.639
-2.607
1.179
4.656
7.785
10.549
12.955
15.016
16.761
18.224
19.451
20.492
21.395
22.219
23.024
23.877
24.848
25.997
27.37
29.005
30.931
33.167
35.728
38.62
41.838
45.38
49.242
53.419
57.906
62.696
67.773
73.121
78.717
84.543
90.576
96.796
103.178
109.699
116.332
123.054
129.838
136.657
143.479
150.272
156.999
163.628
170.121
176.445
182.562
188.438
194.039
199.333
204.289
208.876
213.068
216.836
220.157
223.007
225.367
227.219
228.548
229.341
229.59
229.287
228.429
227.017
225.05
222.535
219.479
215.892
211.787
207.18
202.089
196.534
190.54
184.13
177.332
170.176
162.692
154.913
146.871
138.6
130.137
121.516
112.771
103.94
95.058
86.159
77.277
68.447
59.701
51.07
42.585
34.273
26.164
18.28
10.647
3.285
-3.785
-10.546
-16.981
-23.078
-28.825
-34.213
-39.235
-43.885
-48.162
-52.065
-55.595
-58.757
-61.555
-63.999
-66.095
-67.857
-69.295
-70.423
-71.257
-71.811
-72.103
-72.15
-71.97
-71.581
-71.001
-70.249
-69.343
-68.302
-67.145
-65.889
-64.552
-63.151
-61.703
-60.225
-58.732
-57.238
-55.758
-54.305
-52.891
-51.527
-50.222
-48.987
-47.83
-46.756
-45.772
-44.882
-44.09
-43.399
-42.81
-42.323
-41.939
-41.655
-41.472
-41.386
-41.394
-41.494
-41.683
-41.956
-42.31
-42.74
-43.242
-43.809
-44.438
-45.121
-45.854
-46.63
-47.442
-48.286
-49.154
-50.04
-50.938
-51.84
-52.741
-53.633
-54.511
-55.368
-56.198
-56.997
-57.759
-58.48
-59.155
-59.781
-60.355
-60.873
-61.332
-61.728
-62.06
-62.324
-62.517
-62.636
-62.678
-62.643
-62.527
-62.33
-62.051
-61.69
-61.246
-60.72
-60.113
-59.426
-58.661
-57.82
-56.906
-55.924
-54.878
-53.775
-52.62
-51.419
-50.179
-48.906
-47.609
-46.293
-44.965
-43.631
-42.299
-40.976
-39.669
-38.386
-37.135
-35.925
-34.766
-33.669
-32.643
-31.696
-30.836
-30.072
-29.41
-28.856
-28.413
-28.081
-27.864
-27.764
-27.784
-27.928
-28.194
-28.581
-29.085
-29.704
-30.431
-31.259
-32.175
-33.167
-34.226
-35.347
-36.529
-37.777
-39.09
-40.458
-41.869
-43.314
-44.774
-46.227
-47.637
-48.956
-50.157
-51.223
-52.143
-52.915
-53.525
-53.957
-54.197
-54.235
-54.06
-53.677
-53.092
-52.316
-51.4
-50.406
-49.412
-48.541
-47.88
-47.489
-47.437
-47.769
-48.506
-49.693
-51.355
-53.42
-55.804
-58.359
-60.837
-63.071
-64.894
-66.018
-66.194
-65.348
-63.513
-60.955
-58.147
-55.293
-52.541
-50.293
-48.771
-47.913
-47.531
-46.973
-45.263
-41.892
-36.376
-27.642
-14.807
2.766
25.962
53.999
83.91
113.185
138.981
160.258
181.775
207.247
236.112
263.059
271.541
243.405
168.901
45.736
-112.783
-283.165
-442.859
-570.103
-652.447
-687.581
-679.68
-637.648
-569.518
-485.125
-392.551
-300.874
-223.147
-164.558
-126.436
-105.358
-90.133
-75.313
-60.018
-45.385
-36.721
-35.564
-39.328
-44.876
-48.293
-47.713
-43.602
-36.786
-28.281
-18.993
-9.709
-1.376
5.071
9.189
11.062
11.002
9.464
6.956
3.939
0.918
-1.598
-3.339
-4.228
-4.261
-3.519
-2.075
0.026
2.682
5.773
9.213
12.906
16.777
20.758
24.729
28.584
32.252
35.672
38.825
41.712
44.324
46.67
48.781
50.693
52.447
54.092
55.663
57.207
58.782
60.447
62.275
64.323
66.631
69.232
72.147
75.389
78.968
82.887
87.133
91.699
96.576
101.754
107.229
112.989
119.016
125.29
131.787
138.483
145.357
152.385
159.541
166.799
174.133
181.517
188.926
196.332
203.703
211.007
218.208
225.274
232.17
238.86
245.31
251.486
257.355
262.887
268.054
272.827
277.18
281.089
284.531
287.487
289.939
291.87
293.269
294.124
294.426
294.172
293.358
291.984
290.053
287.57
284.542
280.981
276.898
272.309
267.233
261.687
255.696
249.283
242.476
235.301
227.788
219.97
211.877
203.543
195.001
186.286
177.43
168.468
159.433
150.359
141.279
132.223
123.223
114.31
105.512
96.857
88.371
80.08
72.007
64.172
56.597
49.298
42.294
35.597
29.221
23.175
17.469
12.109
7.099
2.441
-1.863
-5.815
-9.419
-12.68
-15.603
-18.196
-20.47
-22.434
-24.1
-25.48
-26.588
-27.437
-28.043
-28.419
-28.583
-28.549
-28.333
-27.952
-27.42
-26.754
-25.97
-25.083
-24.107
-23.058
-21.949
-20.794
-19.607
-18.4
-17.184
-15.971
-14.771
-13.593
-12.446
-11.339
-10.277
-9.267
-8.316
-7.427
-6.605
-5.853
-5.174
-4.57
-4.043
-3.592
-3.219
-2.923
-2.704
-2.561
-2.491
-2.494
-2.567
-2.709
-2.916
-3.185
-3.514
-3.899
-4.336
-4.821
-5.35
-5.919
-6.524
-7.161
-7.823
-8.508
-9.21
-9.925
-10.647
-11.37
-12.091
-12.803
-13.502
-14.182
-14.838
-15.465
-16.06
-16.617
-17.133
-17.604
-18.025
-18.394
-18.707
-18.961
-19.153
-19.281
-19.341
-19.332
-19.253
-19.102
-18.88
-18.586
-18.22
-17.783
-17.277
-16.703
-16.064
-15.363
-14.603
-13.786
-12.92
-12.009
-11.061
-10.082
-9.08
-8.062
-7.036
-6.012
-4.997
-3.998
-3.024
-2.083
-1.183
-0.334
0.455
1.177
1.822
2.38
2.842
3.2
3.446
3.575
3.584
3.466
3.216
2.832
2.318
1.674
0.903
0.007
-1.013
-2.151
-3.397
-4.741
-6.174
-7.691
-9.286
-10.95
-12.667
-14.427
-16.218
-18.04
-19.897
-21.79
-23.711
-25.651
-27.603
-29.561
-31.517
-33.446
-35.306
-37.053
-38.649
-40.073
-41.314
-42.358
-43.189
-43.785
-44.121
-44.185
-43.957
-43.428
-42.602
-41.501
-40.186
-38.753
-37.322
-36.05
-35.117
-34.627
-34.599
-34.966
-35.534
-36.154
-36.779
-37.331
-37.702
-37.911
-38.133
-38.777
-40.521
-43.88
-48.945
-55.568
-63.444
-72.109
-80.901
-88.822
-94.49
-96.623
-94.512
-88.079
-77.699
-63.884
-47.199
-28.284
-7.996
12.851
33.962
55.637
78.941
103.828
128.129
149.315
164.431
173.284
181.287
192.418
206.637
218.573
211.097
166.799
76.518
-62.149
-234.3
-414.997
-580.957
-708.561
-783.238
-802.329
-768.186
-688.317
-576.824
-449.066
-320.493
-211.584
-135.872
-96.088
-90.7
-103.718
-115.36
-116.471
-100.699
-73.284
-48.428
-32.107
-27.411
-32.368
-38.095
-40.521
-38.739
-32.892
-25.877
-19.403
-13.678
-9.242
-6.477
-5.399
-6.007
-8.068
-11.031
-14.424
-17.945
-21.195
-23.744
-25.377
-25.981
-25.545
-24.224
-22.132
-19.357
-16.03
-12.284
-8.248
-4.048
0.206
4.402
8.435
12.223
15.707
18.853
21.65
24.091
26.182
27.959
29.468
30.759
31.888
32.9
33.849
34.799
35.817
36.975
38.332
39.928
41.794
43.954
46.421
49.207
52.314
55.733
59.453
63.466
67.764
72.342
77.188
82.287
87.617
93.159
98.892
104.798
110.854
117.04
123.332
129.707
136.142
142.615
149.1
155.568
161.989
168.329
174.558
180.642
186.548
192.243
197.695
202.872
207.745
212.286
216.468
220.265
223.653
226.609
229.113
231.148
232.697
233.746
234.284
234.301
233.792
232.753
231.182
229.079
226.45
223.299
219.636
215.472
210.82
205.697
200.121
194.114
187.697
180.898
173.741
166.257
158.476
150.428
142.146
133.663
125.011
116.225
107.338
98.384
89.395
80.404
71.444
62.545
53.738
45.052
36.516
28.156
19.999
12.067
4.383
-3.032
-10.159
-16.982
-23.485
-29.656
-35.484
-40.961
-46.08
-50.836
-55.229
-59.258
-62.925
-66.236
-69.195
-71.81
-74.092
-76.05
-77.698
-79.047
-80.113
-80.911
-81.458
-81.769
-81.862
-81.755
-81.465
-81.012
-80.412
-79.684
-78.847
-77.917
-76.914
-75.854
-74.753
-73.628
-72.495
-71.368
-70.26
-69.185
-68.153
-67.175
-66.26
-65.418
-64.655
-63.976
-63.388
-62.895
-62.499
-62.202
-62.006
-61.911
-61.917
-62.022
-62.225
-62.523
-62.913
-63.393
-63.957
-64.604
-65.326
-66.12
-66.981
-67.902
-68.877
-69.9
-70.964
-72.064
-73.192
-74.342
-75.508
-76.684
-77.863
-79.04
-80.208
-81.362
-82.496
-83.605
-84.684
-85.726
-86.729
-87.686
-88.596
-89.452
-90.252
-90.992
-91.668
-92.278
-92.818
-93.285
-93.676
-93.989
-94.221
-94.371
-94.437
-94.418
-94.314
-94.125
-93.851
-93.492
-93.05
-92.524
-91.916
-91.227
-90.46
-89.618
-88.704
-87.722
-86.677
-85.573
-84.417
-83.214
-81.97
-80.691
-79.384
-78.056
-76.715
-75.367
-74.021
-72.685
-71.367
-70.077
-68.824
-67.617
-66.465
-65.378
-64.364
-63.429
-62.58
-61.824
-61.163
-60.604
-60.147
-59.795
-59.553
-59.422
-59.406
-59.506
-59.72
-60.045
-60.472
-60.996
-61.605
-62.291
-63.041
-63.848
-64.704
-65.611
-66.571
-67.588
-68.654
-69.754
-70.866
-71.966
-73.031
-74.043
-74.979
-75.823
-76.567
-77.208
-77.748
-78.196
-78.543
-78.763
-78.817
-78.666
-78.303
-77.753
-77.054
-76.265
-75.441
-74.619
-73.864
-73.245
-72.796
-72.554
-72.535
-72.691
-73.025
-73.604
-74.434
-75.496
-76.667
-77.644
-78.14
-77.962
-76.898
-74.796
-71.654
-67.55
-62.888
-58.375
-54.662
-52.3
-51.599
-52.698
-55.677
-60.123
-65.106
-68.741
-68.066
-61.646
-49.434
-32.766
-15.312
2.3
21.613
44.521
75.119
113.758
158.919
207.822
252.409
283.315
285.989
245.524
155.495
16.395
-156.564
-338.828
-507.488
-640.687
-726.022
-761.119
-748.053
-693.325
-606.833
-501.281
-390.277
-290.447
-215.307
-167.944
-145.75
-137.818
-130.322
-117.938
-100.322
-81.607
-68.676
-63.036
-62.355
-63.37
-62.174
-57.46
-50.121
-41.118
-31.462
-21.911
-13.021
-5.496
-0.06
3.031
3.991
3.165
0.972
-2.141
-5.737
-9.34
-12.453
-14.797
-16.304
-16.959
-16.817
-15.927
-14.318
-12.074
-9.325
-6.17
-2.694
1.03
4.944
8.95
12.909
16.718
20.307
23.633
26.692
29.477
31.979
34.219
36.237
38.083
39.813
41.476
43.11
44.767
46.503
48.38
50.469
52.821
55.473
58.45
61.77
65.443
69.481
73.879
78.622
83.698
89.094
94.797
100.8
107.086
113.631
120.411
127.402
134.576
141.91
149.376
156.946
164.59
172.282
179.993
187.695
195.358
202.949
210.433
217.776
224.943
231.898
238.608
245.036
251.151
256.919
262.31
267.297
271.85
275.946
279.559
282.669
285.257
287.306
288.801
289.732
290.09
289.87
289.07
287.688
285.729
283.197
280.1
276.45
272.259
267.544
262.322
256.614
250.443
243.833
236.811
229.405
221.647
213.567
205.199
196.577
187.736
178.711
169.539
160.256
150.898
141.501
132.103
122.738
113.441
104.246
95.184
86.288
77.586
69.106
60.875
52.916
45.252
37.903
30.887
24.22
17.917
11.989
6.446
1.297
-3.455
-7.806
-11.754
-15.3
-18.448
-21.203
-23.57
-25.56
-27.182
-28.448
-29.373
-29.971
-30.259
-30.254
-29.976
-29.444
-28.678
-27.699
-26.527
-25.183
-23.689
-22.065
-20.331
-18.507
-16.614
-14.668
-12.69
-10.695
-8.702
-6.725
-4.779
-2.878
-1.035
0.738
2.43
4.033
5.536
6.933
8.218
9.384
10.428
11.346
12.136
12.798
13.331
13.736
14.015
14.172
14.209
14.131
13.942
13.648
13.254
12.766
12.19
11.533
10.799
9.997
9.131
8.209
7.237
6.22
5.165
4.078
2.964
1.829
0.678
-0.484
-1.65
-2.817
-3.979
-5.132
-6.271
-7.393
-8.492
-9.566
-10.611
-11.622
-12.598
-13.534
-14.428
-15.278
-16.082
-16.837
-17.541
-18.193
-18.792
-19.335
-19.822
-20.251
-20.621
-20.93
-21.178
-21.362
-21.483
-21.54
-21.531
-21.456
-21.316
-21.11
-20.839
-20.503
-20.105
-19.643
-19.121
-18.541
-17.906
-17.219
-16.484
-15.706
-14.89
-14.041
-13.166
-12.271
-11.361
-10.444
-9.525
-8.611
-7.71
-6.828
-5.972
-5.149
-4.367
-3.635
-2.96
-2.351
-1.816
-1.366
-1.005
-0.743
-0.585
-0.535
-0.597
-0.775
-1.069
-1.481
-2.014
-2.666
-3.439
-4.332
-5.341
-6.46
-7.681
-8.992
-10.385
-11.853
-13.382
-14.965
-16.597
-18.275
-20.008
-21.799
-23.639
-25.514
-27.408
-29.291
-31.147
-32.964
-34.712
-36.373
-37.93
-39.365
-40.684
-41.899
-42.991
-43.937
-44.696
-45.234
-45.567
-45.731
-45.764
-45.721
-45.632
-45.532
-45.514
-45.652
-46.01
-46.641
-47.515
-48.61
-49.974
-51.619
-53.52
-55.574
-57.494
-59.003
-59.9
-59.905
-58.843
-56.704
-53.504
-49.622
-45.721
-42.33
-40.134
-39.862
-41.772
-45.854
-51.772
-58.31
-64.069
-67.858
-67.819
-62.045
-49.176
-27.667
2.174
36.863
72.718
105.803
134.09
161.861
192.942
226.931
258.383
269.589
240.647
160.132
24.806
-150.371
-338.414
-513.537
-650.697
-734.247
-760.91
-733.586
-661.254
-558.463
-441.332
-324.472
-222.948
-147.989
-102.168
-84.438
-88.04
-99.5
-108.953
-110.537
-100.749
-84.931
-70.382
-59.946
-56.304
-57.367
-57.512
-54.831
-48.362
-38.623
-28.66
-20.144
-13.764
-9.993
-8.369
-8.417
-9.912
-12.436
-15.527
-18.733
-21.582
-23.773
-25.18
-25.772
-25.586
-24.663
-23.05
-20.833
-18.107
-14.959
-11.489
-7.786
-3.935
-0.052
3.769
7.446
10.909
14.121
17.064
19.732
22.13
24.282
26.213
27.959
29.566
31.073
32.532
34.001
35.539
37.22
39.099
41.219
43.615
46.31
49.317
52.649
56.306
60.279
64.562
69.147
74.025
79.191
84.633
90.332
96.271
102.426
108.774
115.295
121.965
128.762
135.662
142.641
149.676
156.743
163.818
170.87
177.869
184.784
191.58
198.228
204.693
210.944
216.947
222.672
228.089
233.172
237.893
242.227
246.149
249.638
252.673
255.237
257.314
258.89
259.955
260.501
260.52
260.011
258.971
257.403
255.308
252.694
249.568
245.942
241.828
237.241
232.2
226.724
220.834
214.556
207.913
200.934
193.647
186.08
178.266
170.235
162.019
153.649
145.16
136.582
127.949
119.291
110.641
102.027
93.48
85.028
76.698
68.516
60.506
52.693
45.097
37.738
30.636
23.807
17.265
11.024
5.094
-0.514
-5.795
-10.743
-15.355
-19.629
-23.566
-27.168
-30.439
-33.385
-36.013
-38.332
-40.352
-42.083
-43.539
-44.732
-45.677
-46.388
-46.88
-47.168
-47.268
-47.195
-46.967
-46.598
-46.104
-45.5
-44.803
-44.027
-43.187
-42.296
-41.367
-40.414
-39.448
-38.48
-37.521
-36.579
-35.664
-34.783
-33.942
-33.149
-32.407
-31.722
-31.095
-30.531
-30.03
-29.593
-29.221
-28.914
-28.672
-28.492
-28.375
-28.318
-28.32
-28.378
-28.49
-28.653
-28.865
-29.123
-29.424
-29.764
-30.142
-30.553
-30.995
-31.465
-31.96
-32.478
-33.014
-33.568
-34.136
-34.716
-35.306
-35.903
-36.507
-37.115
-37.726
-38.339
-38.952
-39.564
-40.175
-40.782
-41.384
-41.98
-42.567
-43.145
-43.711
-44.263
-44.8
-45.319
-45.816
-46.291
-46.739
-47.158
-47.546
-47.898
-48.213
-48.488
-48.719
-48.906
-49.045
-49.134
-49.171
-49.154
-49.081
-48.95
-48.759
-48.506
-48.187
-47.803
-47.351
-46.831
-46.243
-45.585
-44.858
-44.064
-43.203
-42.277
-41.288
-40.237
-39.128
-37.966
-36.754
-35.499
-34.206
-32.882
-31.533
-30.168
-28.793
-27.416
-26.044
-24.683
-23.34
-22.022
-20.738
-19.495
-18.3
-17.162
-16.088
-15.088
-14.173
-13.349
-12.623
-12.003
-11.493
-11.099
-10.824
-10.669
-10.634
-10.722
-10.931
-11.261
-11.71
-12.275
-12.949
-13.729
-14.604
-15.566
-16.605
-17.711
-18.872
-20.082
-21.335
-22.626
-23.958
-25.328
-26.732
-28.165
-29.618
-31.071
-32.501
-33.878
-35.171
-36.359
-37.422
-38.338
-39.093
-39.676
-40.082
-40.31
-40.348
-40.18
-39.799
-39.199
-38.394
-37.431
-36.382
-35.341
-34.408
-33.669
-33.185
-33.052
-33.376
-34.171
-35.354
-36.761
-38.174
-39.473
-40.636
-41.565
-42.031
-41.897
-41.193
-40.197
-39.427
-39.147
-39.308
-39.872
-40.969
-42.817
-45.416
-48.233
-50.269
-50.767
-49.349
-45.656
-39.147
-28.92
-14.101
5.674
30.341
59.93
92.841
125.357
153.728
173.596
186.179
198.838
215.339
236.7
251.522
235.676
172.103
50.021
-122.959
-315.324
-495.77
-632.928
-705.658
-717.809
-679.039
-603.421
-510.191
-408.136
-305.458
-216.73
-150.495
-112.856
-106.468
-117.782
-129.542
-131.393
-115.191
-86.153
-58.442
-38.798
-31.59
-35.121
-40.203
-42.533
-40.73
-34.561
-27.044
-19.881
-13.199
-7.609
-3.507
-0.968
-0.138
-0.925
-2.893
-5.648
-8.914
-12.273
-15.235
-17.54
-19.043
-19.688
-19.579
-18.779
-17.306
-15.253
-12.73
-9.824
-6.636
-3.241
0.299
3.872
7.373
10.728
13.872
16.78
19.448
21.867
24.045
26.015
27.814
29.487
31.082
32.634
34.187
35.794
37.512
39.408
41.536
43.932
46.627
49.64
52.983
56.666
60.687
65.033
69.691
74.651
79.901
85.432
91.231
97.277
103.549
110.021
116.669
123.47
130.399
137.429
144.533
151.685
158.858
166.027
173.163
180.236
187.212
194.058
200.74
207.226
213.482
219.475
225.171
230.542
235.557
240.191
244.418
248.213
251.555
254.423
256.801
258.673
260.027
260.852
261.139
260.885
260.086
258.744
256.859
254.437
251.487
248.016
244.039
239.57
234.626
229.227
223.393
217.148
210.517
203.528
196.208
188.588
180.698
172.571
164.237
155.73
147.083
138.328
129.498
120.624
111.739
102.872
94.053
85.312
76.676
68.171
59.822
51.654
43.688
35.945
28.443
21.2
14.231
7.549
1.167
-4.907
-10.663
-16.095
-21.2
-25.975
-30.418
-34.532
-38.318
-41.781
-44.926
-47.761
-50.294
-52.534
-54.492
-56.178
-57.605
-58.785
-59.732
-60.458
-60.979
-61.307
-61.458
-61.446
-61.285
-60.99
-60.575
-60.053
-59.438
-58.743
-57.982
-57.167
-56.309
-55.42
-54.511
-53.592
-52.673
-51.762
-50.867
-49.996
-49.156
-48.352
-47.59
-46.874
-46.209
-45.597
-45.042
-44.547
-44.113
-43.742
-43.435
-43.193
-43.016
-42.905
-42.858
-42.876
-42.957
-43.1
-43.303
-43.565
-43.884
-44.257
-44.681
-45.154
-45.672
-46.232
-46.832
-47.467
-48.134
-48.829
-49.55
-50.293
-51.054
-51.83
-52.618
-53.413
-54.214
-55.015
-55.813
-56.606
-57.388
-58.157
-58.908
-59.637
-60.34
-61.013
-61.652
-62.253
-62.813
-63.327
-63.791
-64.203
-64.561
-64.86
-65.099
-65.276
-65.387
-65.433
-65.412
-65.322
-65.161
-64.929
-64.625
-64.251
-63.805
-63.288
-62.7
-62.043
-61.318
-60.528
-59.673
-58.756
-57.78
-56.749
-55.666
-54.537
-53.367
-52.162
-50.928
-49.671
-48.399
-47.119
-45.838
-44.562
-43.297
-42.052
-40.834
-39.649
-38.505
-37.41
-36.37
-35.396
-34.497
-33.68
-32.95
-32.314
-31.778
-31.346
-31.019
-30.798
-30.682
-30.672
-30.77
-30.98
-31.3
-31.729
-32.261
-32.892
-33.62
-34.438
-35.332
-36.288
-37.295
-38.347
-39.444
-40.595
-41.798
-43.044
-44.321
-45.621
-46.931
-48.236
-49.504
-50.692
-51.762
-52.695
-53.489
-54.15
-54.673
-55.038
-55.223
-55.216
-55.015
-54.633
-54.085
-53.376
-52.531
-51.605
-50.675
-49.868
-49.305
-49.061
-49.193
-49.746
-50.752
-52.284
-54.43
-57.133
-60.257
-63.612
-66.9
-69.928
-72.583
-74.563
-75.536
-75.451
-74.4
-72.77
-71.3
-70.376
-70.129
-70.965
-73.11
-76.188
-79.855
-83.404
-85.327
-84.841
-80.597
-69.83
-52.129
-28.6
-1.442
24.186
47.665
71.929
98.102
129.071
161.289
187.601
207.112
217.422
218.631
209.632
177.648
109.597
-3.404
-161.07
-344.763
-525.222
-673.985
-770.372
-806.991
-791.886
-737.345
-653.862
-555.003
-449.289
-346.514
-261.666
-198.951
-158.046
-133.723
-112.197
-87.775
-60.979
-34.098
-14.025
-3.596
-0.954
-4
-9.664
-15.886
-22.213
-28.522
-34.551
-39.657
-43.198
-44.472
-43.015
-39.044
-33.1
-25.685
-17.53
-9.463
-2.109
3.804
7.756
9.712
9.929
8.813
6.982
5.119
3.685
3.08
3.565
5.149
7.724
11.099
14.943
18.862
22.613
26.044
29.075
31.732
34.028
35.968
37.609
39.031
40.289
41.427
42.472
43.428
44.33
45.237
46.212
47.331
48.651
50.203
52.016
54.113
56.513
59.23
62.271
65.628
69.296
73.278
77.572
82.179
87.092
92.294
97.764
103.482
109.426
115.578
121.918
128.423
135.07
141.836
148.699
155.634
162.615
169.611
176.59
183.52
190.366
197.095
203.675
210.069
216.245
222.17
227.811
233.137
238.118
242.725
246.929
250.704
254.026
256.873
259.225
261.063
262.372
263.14
263.355
263.009
262.098
260.618
258.57
255.956
252.783
249.058
244.794
240.004
234.705
228.917
222.661
215.961
208.844
201.338
193.473
185.281
176.797
168.053
159.087
149.935
140.634
131.221
121.736
112.214
102.694
93.212
83.804
74.507
65.353
56.377
47.61
39.081
30.82
22.853
15.203
7.894
0.944
-5.629
-11.811
-17.59
-22.956
-27.901
-32.422
-36.516
-40.183
-43.428
-46.253
-48.668
-50.683
-52.308
-53.559
-54.45
-54.999
-55.225
-55.147
-54.785
-54.163
-53.302
-52.225
-50.956
-49.519
-47.937
-46.234
-44.435
-42.562
-40.638
-38.685
-36.724
-34.774
-32.854
-30.981
-29.172
-27.442
-25.804
-24.27
-22.852
-21.558
-20.397
-19.373
-18.494
-17.76
-17.174
-16.737
-16.447
-16.303
-16.302
-16.439
-16.712
-17.113
-17.636
-18.275
-19.022
-19.868
-20.804
-21.821
-22.909
-24.06
-25.262
-26.508
-27.787
-29.091
-30.408
-31.731
-33.049
-34.356
-35.645
-36.908
-38.138
-39.329
-40.475
-41.571
-42.614
-43.6
-44.521
-45.371
-46.146
-46.844
-47.466
-48.014
-48.482
-48.859
-49.149
-49.356
-49.482
-49.535
-49.505
-49.373
-49.15
-48.856
-48.464
-47.96
-47.329
-46.54
-45.616
-44.595
-43.457
-42.174
-40.891
-39.782
-38.767
-37.839
-37.025
-36.015
-35.673
-36.86
-38.372
-39.77
-38.893
-33.241
-25.821
-18.711
-14.787
-17.779
-24.107
-30.89
-35.981
-35.793
-32.462
-27.983
-22.889
-19.192
-16.317
-13.226
-10.377
-7.873
-6.159
-6.13
-7.699
-10.117
-13.038
-16.245
-19.456
-22.573
-25.32
-27.107
-27.872
-28.074
-27.993
-27.864
-27.855
-27.903
-28.092
-28.696
-29.738
-31.028
-32.413
-33.707
-34.822
-35.827
-36.728
-37.488
-38.105
-38.585
-38.942
-39.216
-39.407
-39.488
-39.438
-39.231
-38.892
-38.505
-38.172
-38.025
-38.152
-38.577
-39.323
-40.406
-41.829
-43.617
-45.749
-48.146
-50.788
-53.702
-56.865
-60.214
-63.519
-66.36
-68.341
-69.13
-68.431
-66.047
-61.928
-56.233
-49.5
-42.584
-36.335
-31.5
-28.612
-27.919
-29.396
-32.517
-36.075
-38.419
-37.845
-32.625
-21.267
-2.745
23.823
57.467
94.596
131.197
162.65
186.621
206.311
223.89
239.098
248.501
237.927
192.535
103.79
-33.013
-205.18
-387.125
-553.215
-674.895
-735.409
-737.498
-690.9
-612.497
-520.383
-423.137
-326.94
-239.155
-166.048
-113.975
-86.509
-80.387
-84.897
-89.182
-85.739
-70.289
-48.488
-28.771
-15.287
-11.684
-15.155
-19.114
-20.859
-18.38
-12.029
-4.843
1.895
7.3
11.506
15.608
18.547
19.868
17.505
9.076
-1.862
-12.75
-19.908
-18.712
-12.95
-5.853
0.224
1.432
0.379
-0.342
-0.257
2.195
5.949
9.675
13.524
17.212
20.716
24.216
27.489
30.384
32.941
35.163
37.055
38.665
40.046
41.254
42.359
43.425
44.492
45.605
46.827
48.226
49.852
51.744
53.928
56.421
59.237
62.388
65.87
69.671
73.781
78.19
82.889
87.873
93.129
98.639
104.387
110.35
116.51
122.846
129.337
135.959
142.69
149.505
156.381
163.294
170.219
177.126
183.984
190.762
197.427
203.949
210.293
216.428
222.32
227.94
233.257
238.243
242.871
247.115
250.949
254.351
257.3
259.777
261.766
263.252
264.222
264.666
264.577
263.95
262.783
261.074
258.826
256.045
252.738
248.915
244.588
239.772
234.485
228.746
222.577
216.001
209.043
201.731
194.094
186.161
177.964
169.534
160.905
152.109
143.18
134.152
125.058
115.931
106.804
97.71
88.681
79.746
70.937
62.282
53.808
45.541
37.505
29.723
22.217
15.005
8.104
1.53
-4.703
-10.585
-16.106
-21.259
-26.039
-30.443
-34.47
-38.121
-41.399
-44.309
-46.857
-49.051
-50.901
-52.418
-53.614
-54.502
-55.099
-55.418
-55.477
-55.292
-54.881
-54.263
-53.455
-52.476
-51.344
-50.078
-48.697
-47.218
-45.659
-44.038
-42.373
-40.678
-38.971
-37.265
-35.576
-33.916
-32.297
-30.732
-29.231
-27.803
-26.457
-25.2
-24.041
-22.983
-22.033
-21.193
-20.466
-19.855
-19.36
-18.982
-18.719
-18.57
-18.534
-18.609
-18.79
-19.074
-19.458
-19.937
-20.506
-21.159
-21.89
-22.694
-23.564
-24.493
-25.475
-26.502
-27.568
-28.665
-29.787
-30.927
-32.077
-33.231
-34.382
-35.522
-36.644
-37.743
-38.811
-39.842
-40.832
-41.774
-42.664
-43.498
-44.271
-44.979
-45.619
-46.187
-46.68
-47.095
-47.429
-47.681
-47.848
-47.93
-47.926
-47.836
-47.663
-47.406
-47.067
-46.648
-46.152
-45.582
-44.939
-44.228
-43.453
-42.617
-41.727
-40.79
-39.81
-38.796
-37.753
-36.689
-35.61
-34.524
-33.437
-32.356
-31.287
-30.238
-29.217
-28.232
-27.291
-26.403
-25.575
-24.817
-24.137
-23.541
-23.036
-22.627
-22.318
-22.113
-22.014
-22.022
-22.137
-22.36
-22.694
-23.141
-23.7
-24.371
-25.151
-26.039
-27.031
-28.122
-29.302
-30.557
-31.873
-33.242
-34.661
-36.129
-37.644
-39.19
-40.756
-42.334
-43.908
-45.457
-46.947
-48.325
-49.553
-50.613
-51.503
-52.234
-52.815
-53.242
-53.508
-53.614
-53.568
-53.38
-53.052
-52.57
-51.947
-51.229
-50.514
-49.94
-49.61
-49.579
-49.86
-50.44
-51.308
-52.465
-53.905
-55.584
-57.454
-59.466
-61.622
-63.977
-66.482
-68.955
-71.049
-72.273
-72.21
-70.629
-67.375
-62.292
-55.485
-47.299
-38.357
-29.781
-22.647
-17.651
-15.261
-15.67
-18.459
-22.837
-27.695
-30.98
-30.42
-24.069
-9.933
12.456
40.891
72.415
103.292
131.063
158.746
189.398
223.027
255.398
270.191
247.941
176.213
49.54
-118.803
-301.881
-473.919
-609.408
-692.915
-723.278
-703.416
-641.437
-552.151
-450
-350.039
-268.371
-210.552
-173.959
-152.294
-133.811
-112.884
-90.708
-70.415
-57.774
-54.361
-57.439
-63.199
-67.111
-67.096
-63.341
-56.477
-47.452
-37.114
-26.307
-16.207
-7.984
-2.475
1.103
3.833
4.98
4.62
0.961
-8.044
-18.795
-28.942
-35.353
-33.964
-28.43
-21.807
-16.183
-15.06
-16.077
-16.842
-16.889
-14.755
-11.37
-7.938
-4.353
-0.898
2.394
5.684
8.785
11.569
14.065
16.271
18.186
19.849
21.314
22.637
23.884
25.118
26.374
27.699
29.158
30.823
32.745
34.962
37.495
40.358
43.564
47.126
51.041
55.297
59.88
64.78
69.986
75.491
81.279
87.33
93.621
100.128
106.828
113.698
120.713
127.849
135.078
142.374
149.713
157.069
164.413
171.714
178.94
186.057
193.033
199.833
206.425
212.774
218.849
224.618
230.052
235.123
239.805
244.072
247.902
251.274
254.171
256.576
258.476
259.861
260.721
261.052
260.85
260.115
258.848
257.054
254.738
251.909
248.578
244.759
240.466
235.717
230.532
224.931
218.939
212.579
205.879
198.867
191.571
184.023
176.252
168.291
160.172
151.927
143.587
135.186
126.753
118.319
109.913
101.565
93.301
85.147
77.128
69.267
61.585
54.103
46.84
39.813
33.037
26.526
20.293
14.347
8.699
3.356
-1.678
-6.398
-10.801
-14.888
-18.659
-22.117
-25.266
-28.111
-30.661
-32.923
-34.907
-36.624
-38.086
-39.306
-40.296
-41.069
-41.64
-42.022
-42.23
-42.276
-42.175
-41.941
-41.586
-41.124
-40.568
-39.93
-39.223
-38.458
-37.646
-36.8
-35.928
-35.042
-34.151
-33.263
-32.387
-31.532
-30.704
-29.911
-29.158
-28.451
-27.794
-27.191
-26.645
-26.158
-25.732
-25.367
-25.066
-24.826
-24.649
-24.534
-24.479
-24.485
-24.549
-24.67
-24.846
-25.077
-25.358
-25.689
-26.066
-26.487
-26.95
-27.45
-27.985
-28.551
-29.145
-29.764
-30.402
-31.056
-31.721
-32.392
-33.064
-33.732
-34.391
-35.035
-35.661
-36.263
-36.837
-37.379
-37.885
-38.35
-38.772
-39.146
-39.468
-39.734
-39.942
-40.088
-40.169
-40.181
-40.124
-39.995
-39.792
-39.515
-39.162
-38.733
-38.228
-37.646
-36.988
-36.256
-35.451
-34.573
-33.628
-32.618
-31.55
-30.428
-29.258
-28.048
-26.802
-25.529
-24.237
-22.931
-21.621
-20.311
-19.012
-17.732
-16.479
-15.262
-14.091
-12.975
-11.923
-10.946
-10.052
-9.251
-8.547
-7.949
-7.46
-7.087
-6.831
-6.695
-6.681
-6.793
-7.034
-7.408
-7.915
-8.552
-9.314
-10.198
-11.194
-12.293
-13.484
-14.752
-16.09
-17.495
-18.966
-20.508
-22.117
-23.781
-25.492
-27.236
-28.994
-30.744
-32.452
-34.079
-35.611
-37.041
-38.365
-39.589
-40.702
-41.684
-42.526
-43.205
-43.702
-44.019
-44.142
-44.071
-43.84
-43.497
-43.124
-42.831
-42.688
-42.745
-43.06
-43.651
-44.57
-45.902
-47.61
-49.597
-51.715
-53.73
-55.505
-56.984
-57.991
-58.312
-57.899
-56.91
-55.825
-55.246
-55.428
-56.401
-58.196
-60.795
-64.098
-67.5
-69.695
-69.665
-67.047
-61.513
-53.131
-41.2
-23.674
-0.968
24.854
51.331
72.758
86.794
95.966
102.582
113.86
136.676
169.152
205.925
235.066
236.69
196.689
108.206
-28.927
-198.397
-376.415
-540.287
-666.565
-741.825
-764.566
-737.215
-667.871
-570.857
-460.185
-352.037
-264.605
-204.525
-170.275
-154.558
-142.051
-125.277
-104.343
-81.848
-65.376
-57.915
-57.122
-60.11
-62.56
-61.881
-58.202
-52.12
-44.444
-36.016
-27.446
-19.335
-12.456
-7.552
-4.838
-4.167
-5.285
-7.726
-11.002
-14.704
-18.339
-21.425
-23.732
-25.172
-25.723
-25.47
-24.473
-22.78
-20.499
-17.754
-14.636
-11.24
-7.646
-3.926
-0.206
3.399
6.807
9.955
12.819
15.396
17.678
19.675
21.423
22.967
24.36
25.655
26.893
28.124
29.404
30.799
32.382
34.21
36.324
38.756
41.529
44.656
48.148
52.007
56.22
60.774
65.659
70.864
76.38
82.194
88.285
94.629
101.201
107.976
114.93
122.037
129.269
136.598
143.997
151.437
158.892
166.332
173.722
181.029
188.218
195.252
202.096
208.716
215.076
221.142
226.881
232.263
237.258
241.841
245.982
249.66
252.85
255.535
257.698
259.322
260.398
260.915
260.868
260.255
259.074
257.328
255.023
252.166
248.767
244.84
240.401
235.467
230.059
224.2
217.915
211.231
204.177
196.782
189.077
181.097
172.873
164.44
155.833
147.086
138.234
129.312
120.355
111.397
102.47
93.608
84.841
76.2
67.714
59.408
51.31
43.441
35.825
28.481
21.428
14.681
8.255
2.161
-3.59
-8.991
-14.036
-18.722
-23.047
-27.011
-30.618
-33.871
-36.775
-39.338
-41.57
-43.48
-45.08
-46.383
-47.403
-48.156
-48.657
-48.923
-48.972
-48.82
-48.486
-47.987
-47.342
-46.569
-45.686
-44.709
-43.658
-42.548
-41.397
-40.219
-39.031
-37.846
-36.679
-35.542
-34.446
-33.404
-32.425
-31.517
-30.691
-29.952
-29.307
-28.761
-28.319
-27.984
-27.759
-27.644
-27.641
-27.749
-27.968
-28.296
-28.73
-29.269
-29.909
-30.645
-31.473
-32.388
-33.385
-34.458
-35.599
-36.804
-38.064
-39.374
-40.725
-42.112
-43.525
-44.958
-46.402
-47.851
-49.296
-50.73
-52.146
-53.536
-54.894
-56.213
-57.488
-58.713
-59.883
-60.991
-62.034
-63.008
-63.907
-64.728
-65.468
-66.123
-66.691
-67.17
-67.559
-67.858
-68.066
-68.182
-68.209
-68.148
-67.999
-67.765
-67.449
-67.053
-66.582
-66.041
-65.435
-64.772
-64.056
-63.296
-62.499
-61.673
-60.825
-59.964
-59.096
-58.229
-57.372
-56.533
-55.722
-54.946
-54.214
-53.536
-52.92
-52.377
-51.917
-51.545
-51.27
-51.097
-51.033
-51.082
-51.246
-51.525
-51.919
-52.432
-53.063
-53.816
-54.689
-55.677
-56.779
-57.987
-59.293
-60.687
-62.153
-63.676
-65.244
-66.85
-68.489
-70.166
-71.876
-73.612
-75.366
-77.122
-78.859
-80.55
-82.154
-83.637
-84.983
-86.177
-87.22
-88.12
-88.864
-89.449
-89.878
-90.124
-90.169
-90.003
-89.61
-89.019
-88.293
-87.501
-86.74
-86.091
-85.599
-85.319
-85.292
-85.541
-86.109
-86.973
-88.116
-89.592
-91.39
-93.445
-95.613
-97.549
-98.9
-99.399
-98.688
-96.523
-92.93
-88.019
-82.276
-76.544
-71.47
-67.766
-66.205
-66.996
-69.983
-74.757
-80.074
-84.348
-86.198
-83.93
-75.783
-60.59
-37.517
-6.084
31.834
71.897
109.402
139.125
159.556
175.888
193.254
213.503
230.132
223.142
169.969
56.023
-118.128
-329.432
-540.088
-713.463
-823.698
-862.413
-841.359
-777.64
-685.516
-580.085
-468.289
-358.602
-266.817
-199.026
-157.955
-139.726
-128.575
-116.102
-99.91
-80.873
-66.779
-60.695
-60.305
-62.574
-62.814
-58.877
-51.599
-42.028
-31.383
-20.637
-10.453
-1.696
4.745
8.519
9.808
9.011
6.629
3.185
-0.806
-4.779
-8.161
-10.627
-12.094
-12.556
-12.09
-10.767
-8.64
-5.817
-2.453
1.33
5.435
9.774
14.275
18.823
23.259
27.464
31.356
34.886
38.047
40.83
43.227
45.259
46.976
48.434
49.697
50.822
51.853
52.849
53.876
55.006
56.317
57.869
59.703
61.85
64.332
67.163
70.359
73.918
77.828
82.078
86.659
91.565
96.789
102.317
108.132
114.21
120.53
127.069
133.807
140.718
147.776
154.956
162.231
169.575
176.96
184.358
191.733
199.052
206.279
213.376
220.308
227.038
233.527
239.741
245.644
251.203
256.387
261.164
265.505
269.383
272.772
275.65
277.997
279.794
281.026
281.681
281.751
281.228
280.109
278.395
276.087
273.191
269.715
265.671
261.073
255.938
250.285
244.137
237.519
230.458
222.984
215.129
206.924
198.405
189.608
180.57
171.33
161.925
152.394
142.776
133.11
123.434
113.787
104.205
94.723
85.378
76.201
67.225
58.479
49.991
41.787
33.891
26.325
19.107
12.255
5.784
-0.294
-5.97
-11.235
-16.086
-20.519
-24.536
-28.137
-31.328
-34.115
-36.508
-38.518
-40.156
-41.437
-42.378
-42.996
-43.308
-43.336
-43.098
-42.617
-41.913
-41.008
-39.924
-38.683
-37.306
-35.815
-34.229
-32.571
-30.858
-29.11
-27.346
-25.581
-23.833
-22.115
-20.443
-18.83
-17.286
-15.823
-14.451
-13.177
-12.009
-10.952
-10.009
-9.185
-8.481
-7.897
-7.434
-7.09
-6.863
-6.75
-6.748
-6.852
-7.059
-7.361
-7.755
-8.233
-8.791
-9.42
-10.115
-10.868
-11.674
-12.525
-13.415
-14.339
-15.289
-16.259
-17.243
-18.236
-19.23
-20.219
-21.197
-22.159
-23.099
-24.013
-24.898
-25.75
-26.566
-27.343
-28.08
-28.774
-29.424
-30.026
-30.578
-31.08
-31.529
-31.925
-32.267
-32.555
-32.789
-32.97
-33.099
-33.177
-33.205
-33.183
-33.11
-32.985
-32.807
-32.574
-32.284
-31.936
-31.529
-31.063
-30.536
-29.951
-29.303
-28.59
-27.809
-26.953
-26.016
-24.991
-23.876
-22.666
-21.363
-19.971
-18.497
-16.951
-15.343
-13.682
-11.971
-10.212
-8.397
-6.515
-4.556
