Name
Date of Birth,"Mar 15, 1999"
Recorded Date,2020-06-01 16:51:19 -0700
Classification,Sinus Rhythm
Symptoms,
Software Version,1.52
Device,"Watch4,1"
Sample Rate,513.656 hertz


Lead,Lead I
Unit,µV

14.467
17.405
20.329
23.231
26.102
28.935
31.723
34.457
37.132
39.742
42.281
44.744
47.128
49.428
51.643
53.769
55.805
57.75
59.602
61.361
63.028
64.602
66.084
67.475
68.778
69.993
71.123
72.17
73.137
74.026
74.84
75.583
76.256
76.864
77.41
77.897
78.328
78.707
79.037
79.323
79.568
79.774
79.946
80.086
80.197
80.281
80.342
80.38
80.398
80.397
80.38
80.348
80.301
80.242
80.172
80.09
79.998
79.895
79.781
79.657
79.521
79.374
79.215
79.042
78.856
78.655
78.439
78.206
77.955
77.686
77.396
77.084
76.749
76.388
76.001
75.586
75.141
74.666
74.159
73.619
73.046
72.439
71.796
71.118
70.404
69.653
68.864
68.039
67.177
66.28
65.349
64.385
63.39
62.368
61.322
60.253
59.166
58.064
56.949
55.826
54.696
53.563
52.429
51.298
50.174
49.061
47.965
46.89
45.843
44.828
43.851
42.917
42.03
41.193
40.408
39.678
39.005
38.396
37.856
37.388
36.994
36.674
36.426
36.244
36.121
36.042
35.991
35.958
35.936
35.922
35.919
35.929
35.953
35.995
36.052
36.124
36.209
36.305
36.41
36.533
36.683
36.884
37.163
37.533
37.999
38.557
39.186
39.866
40.567
41.249
41.882
42.441
42.899
43.242
43.453
43.505
43.368
43
42.352
41.392
40.1
38.463
36.492
34.207
31.635
28.827
25.826
22.663
19.371
15.967
12.47
8.908
5.312
1.717
-1.83
-5.295
-8.651
-11.872
-14.948
-17.881
-20.68
-23.372
-25.981
-28.517
-30.985
-33.382
-35.702
-37.947
-40.122
-42.226
-44.264
-46.239
-48.151
-50.006
-51.799
-53.513
-55.121
-56.585
-57.873
-58.967
-59.857
-60.539
-61.01
-61.262
-61.285
-61.079
-60.658
-60.032
-59.213
-58.214
-57.06
-55.799
-54.514
-53.3
-52.241
-51.406
-50.84
-50.565
-50.616
-51.049
-51.921
-53.279
-55.14
-57.454
-60.192
-63.375
-66.93
-70.674
-74.311
-77.338
-79.322
-80.124
-79.653
-77.793
-74.646
-70.365
-65.307
-60.433
-56.718
-54.556
-54.126
-55.381
-57.823
-60.936
-63.914
-65.078
-62.275
-53.812
-38.448
-15.099
15.246
49.519
84.536
115.951
142.13
167.394
194.476
223.182
247.742
250.842
213.657
127.073
-3.249
-177.601
-397.642
-596.327
-694.608
-724.142
-736.181
-707.03
-627.039
-525.839
-416.425
-310.118
-225.133
-165.49
-132.515
-121.309
-115.137
-105.885
-92.072
-75.218
-63.33
-60.039
-63.075
-68.504
-71.654
-70.533
-65.668
-58.275
-49.709
-40.613
-31.717
-24.313
-19.098
-16.308
-15.874
-17.21
-19.803
-23.303
-27.152
-30.691
-33.509
-35.364
-36.183
-36.094
-35.169
-33.447
-31.033
-28.046
-24.601
-20.813
-16.772
-12.546
-8.226
-3.921
0.254
4.191
7.813
11.077
13.957
16.445
18.537
20.247
21.603
22.638
23.393
23.909
24.226
24.387
24.438
24.426
24.4
24.407
24.478
24.638
24.903
25.282
25.785
26.419
27.185
28.083
29.115
30.282
31.589
33.04
34.637
36.379
38.267
40.298
42.473
44.794
47.263
49.881
52.65
55.571
58.646
61.876
65.262
68.8
72.488
76.32
80.293
84.401
88.64
93.007
97.496
102.099
106.805
111.602
116.477
121.41
126.382
131.369
136.346
141.292
146.185
151.01
155.749
160.39
164.918
169.316
173.574
177.686
181.652
185.473
189.154
192.699
196.118
199.429
202.647
205.783
208.841
211.815
214.693
217.454
220.077
222.542
224.818
226.861
228.625
230.055
231.106
231.741
231.919
231.586
230.69
229.187
227.042
224.239
220.771
216.638
211.843
206.395
200.323
193.672
186.499
178.863
170.81
162.37
153.582
144.503
135.198
125.733
116.166
106.545
96.922
87.353
77.903
68.629
59.565
50.731
42.139
33.799
25.747
18.033
10.694
3.752
-2.783
-8.909
-14.617
-19.902
-24.773
-29.26
-33.406
-37.247
-40.799
-44.069
-47.061
-49.785
-52.269
-54.551
-56.657
-58.606
-60.413
-62.091
-63.656
-65.121
-66.481
-67.718
-68.803
-69.717
-70.457
-71.024
-71.425
-71.661
-71.73
-71.632
-71.371
-70.959
-70.402
-69.709
-68.886
-67.942
-66.896
-65.773
-64.602
-63.404
-62.196
-60.991
-59.8
-58.633
-57.5
-56.407
-55.354
-54.342
-53.376
-52.456
-51.588
-50.772
-50.008
-49.291
-48.618
-47.987
-47.395
-46.839
-46.316
-45.824
-45.36
-44.924
-44.513
-44.126
-43.762
-43.416
-43.085
-42.767
-42.457
-42.153
-41.851
-41.547
-41.239
-40.925
-40.602
-40.27
-39.927
-39.572
-39.204
-38.824
-38.431
-38.024
-37.606
-37.176
-36.735
-36.284
-35.826
-35.36
-34.888
-34.412
-33.934
-33.454
-32.974
-32.495
-32.018
-31.546
-31.078
-30.617
-30.165
-29.723
-29.292
-28.873
-28.469
-28.079
-27.706
-27.349
-27.01
-26.688
-26.384
-26.099
-25.834
-25.588
-25.361
-25.154
-24.966
-24.796
-24.644
-24.509
-24.39
-24.287
-24.199
-24.124
-24.065
-24.019
-23.989
-23.973
-23.971
-23.984
-24.011
-24.05
-24.101
-24.163
-24.232
-24.31
-24.396
-24.489
-24.591
-24.702
-24.824
-24.956
-25.099
-25.25
-25.409
-25.573
-25.738
-25.902
-26.063
-26.223
-26.384
-26.548
-26.714
-26.881
-27.042
-27.189
-27.311
-27.393
-27.421
-27.385
-27.277
-27.092
-26.836
-26.515
-26.135
-25.7
-25.205
-24.643
-24.011
-23.314
-22.557
-21.757
-20.936
-20.122
-19.35
-18.654
-18.058
-17.57
-17.186
-16.881
-16.625
-16.394
-16.175
-15.955
-15.72
-15.445
-15.1
-14.654
-14.067
-13.293
-12.271
-10.937
-9.242
-7.162
-4.7
-1.888
1.219
4.576
8.138
11.856
15.677
19.534
23.354
27.076
30.637
33.962
36.969
39.558
41.646
43.18
44.132
44.503
44.319
43.601
42.378
40.694
38.596
36.144
33.406
30.431
27.263
23.954
20.56
17.155
13.804
10.552
7.428
4.445
1.605
-1.089
-3.64
-6.069
-8.399
-10.659
-12.883
-15.087
-17.279
-19.468
-21.664
-23.884
-26.141
-28.443
-30.786
-33.163
-35.567
-37.988
-40.412
-42.813
-45.158
-47.41
-49.532
-51.498
-53.287
-54.881
-56.263
-57.414
-58.32
-58.971
-59.364
-59.498
-59.374
-58.992
-58.372
-57.548
-56.565
-55.488
-54.375
-53.28
-52.27
-51.406
-50.758
-50.405
-50.4
-50.783
-51.585
-52.814
-54.504
-56.698
-59.373
-62.463
-65.864
-69.409
-73.014
-76.656
-80.13
-83.115
-85.29
-86.288
-85.995
-84.528
-81.705
-77.194
-71.037
-63.568
-55.454
-47.644
-40.447
-33.691
-27.695
-22.888
-19.161
-15.952
-11.954
-5.146
5.705
21.169
42.484
68.926
97.191
124.182
145.615
161.747
179.247
200.193
222.813
235.349
214.921
147.505
27.663
-136.864
-320.703
-499.746
-651.726
-757.004
-807.897
-803.047
-745.309
-647.456
-527.842
-403.33
-293.545
-212.832
-162.181
-138.525
-131.006
-124.732
-114.412
-99.609
-83.933
-74.541
-72.915
-76.004
-79.866
-80.334
-76.079
-68.105
-57.656
-46.017
-34.114
-22.963
-13.769
-7.177
-3.345
-2.011
-2.617
-4.697
-7.82
-11.39
-14.778
-17.549
-19.447
-20.414
-20.53
-19.832
-18.357
-16.176
-13.379
-10.067
-6.33
-2.244
2.128
6.711
11.414
16.135
20.771
25.222
29.397
33.238
36.709
39.789
42.473
44.764
46.672
48.234
49.498
50.512
51.319
51.952
52.435
52.801
53.092
53.356
53.641
53.984
54.411
54.954
55.651
56.54
57.643
58.956
60.451
62.108
63.912
65.86
67.957
70.199
72.561
75.018
77.538
80.089
82.636
85.13
87.496
89.669
91.605
93.291
94.753
96.013
97.089
98.005
98.778
99.441
100.045
100.64
101.271
102
102.882
103.986
105.413
107.244
109.541
112.338
115.629
119.403
123.647
128.331
133.419
138.866
144.605
150.578
156.734
163.009
169.354
175.713
182.008
188.173
194.156
199.906
205.395
210.599
215.495
220.074
224.331
228.266
231.892
235.211
238.216
240.901
243.23
245.165
246.669
247.699
248.208
248.166
247.545
246.313
244.45
241.927
238.717
234.794
230.126
224.684
218.444
211.401
203.582
195.042
185.851
176.093
165.855
155.216
144.248
133.028
121.631
110.136
98.623
87.18
75.902
64.901
54.302
44.205
34.68
25.771
17.49
9.842
2.821
-3.581
-9.374
-14.578
-19.217
-23.316
-26.901
-30.013
-32.708
-35.063
-37.184
-39.152
-41.03
-42.864
-44.677
-46.489
-48.314
-50.158
-52.014
-53.877
-55.739
-57.594
-59.442
-61.27
-63.058
-64.769
-66.352
-67.769
-68.996
-70.018
-70.826
-71.42
-71.799
-71.971
-71.955
-71.77
-71.43
-70.948
-70.331
-69.594
-68.753
-67.831
-66.851
-65.835
-64.795
-63.743
-62.69
-61.643
-60.607
-59.583
-58.569
-57.563
-56.565
-55.576
-54.598
-53.634
-52.681
-51.741
-50.813
-49.897
-48.995
-48.108
-47.236
-46.38
-45.542
-44.724
-43.929
-43.157
-42.411
-41.692
-41
-40.335
-39.699
-39.092
-38.514
-37.965
-37.446
-36.957
-36.498
-36.069
-35.67
-35.3
-34.961
-34.652
-34.371
-34.12
-33.897
-33.702
-33.534
-33.392
-33.274
-33.18
-33.107
-33.054
-33.021
-33.006
-33.007
-33.024
-33.055
-33.099
-33.154
-33.22
-33.294
-33.376
-33.464
-33.556
-33.652
-33.751
-33.852
-33.954
-34.058
-34.163
-34.27
-34.377
-34.485
-34.595
-34.707
-34.821
-34.939
-35.062
-35.191
-35.327
-35.472
-35.628
-35.795
-35.975
-36.169
-36.377
-36.599
-36.835
-37.085
-37.349
-37.628
-37.921
-38.229
-38.552
-38.892
-39.25
-39.627
-40.021
-40.432
-40.857
-41.295
-41.742
-42.194
-42.649
-43.102
-43.549
-43.988
-44.417
-44.834
-45.234
-45.612
-45.959
-46.27
-46.543
-46.775
-46.965
-47.115
-47.229
-47.315
-47.39
-47.464
-47.539
-47.616
-47.687
-47.746
-47.788
-47.806
-47.795
-47.746
-47.65
-47.5
-47.294
-47.021
-46.664
-46.196
-45.577
-44.782
-43.801
-42.635
-41.295
-39.801
-38.17
-36.437
-34.642
-32.822
-31.011
-29.235
-27.509
-25.862
-24.331
-22.964
-21.822
-20.95
-20.371
-20.103
-20.149
-20.499
-21.138
-22.029
-23.12
-24.367
-25.737
-27.204
-28.758
-30.375
-32.025
-33.675
-35.281
-36.809
-38.241
-39.558
-40.748
-41.814
-42.762
-43.616
-44.416
-45.189
-45.955
-46.725
-47.502
-48.289
-49.096
-49.931
-50.798
-51.706
-52.654
-53.645
-54.678
-55.746
-56.84
-57.942
-59.028
-60.078
-61.076
-62.007
-62.858
-63.619
-64.277
-64.816
-65.226
-65.493
-65.599
-65.534
-65.29
-64.86
-64.246
-63.446
-62.459
-61.288
-59.946
-58.449
-56.822
-55.095
-53.294
-51.465
-49.659
-47.938
-46.381
-45.054
-44.002
-43.268
-42.857
-42.781
-43.087
-43.808
-44.96
-46.538
-48.46
-50.648
-53.106
-55.732
-58.318
-60.582
-62.024
-62.213
-61.036
-58.427
-54.299
-48.779
-42.055
-34.542
-27.295
-21.417
-17.403
-15.483
-15.646
-17.474
-20.477
-23.814
-25.748
-23.95
-16.607
-2.562
19.233
47.932
80.395
113.404
142.803
166.359
188.084
210.875
233.404
249.648
242.416
194.759
98.801
-46.112
-225.01
-414.232
-591.141
-732.002
-819.816
-847.765
-815.496
-730.357
-608.249
-468.355
-329.339
-211.051
-126.907
-79.182
-65.113
-74.057
-88.962
-98.964
-98.225
-83.923
-63.354
-44.528
-29.996
-22.997
-21.294
-18.748
-13.637
-4.983
6.839
18.337
27.475
33.871
37.256
38.195
37.409
35.104
31.61
27.589
23.684
20.315
17.795
16.237
15.582
15.842
16.999
18.938
21.542
24.697
28.287
32.219
36.415
40.784
45.218
49.607
53.844
57.829
61.479
64.742
67.589
70.005
72.001
73.595
74.815
75.706
76.318
76.7
76.902
76.969
76.944
76.874
76.806
76.782
76.839
77.004
77.293
77.719
78.291
79.011
79.881
80.899
82.057
83.352
84.784
86.348
88.045
89.872
91.826
93.905
96.107
98.432
100.879
103.448
106.139
108.951
111.884
114.939
118.113
121.407
124.818
128.346
131.996
135.766
139.653
143.651
147.753
151.949
156.226
160.569
164.955
169.365
173.78
178.186
182.573
186.931
191.247
195.504
199.683
203.767
207.748
211.624
215.391
219.055
222.627
226.129
229.6
233.073
236.568
240.099
243.659
247.237
250.825
254.409
257.973
261.498
264.951
268.293
271.484
274.476
277.209
279.611
281.582
283.021
283.852
284.007
283.444
282.138
280.063
277.209
273.575
269.162
263.985
258.066
251.422
244.078
236.069
227.438
218.255
208.615
198.593
188.265
177.695
166.933
156.03
145.034
133.982
122.916
111.886
100.93
90.109
79.486
69.129
59.115
49.508
40.337
31.634
23.423
15.723
8.559
1.951
-4.091
-9.553
-14.432
-18.734
-22.467
-25.653
-28.338
-30.576
-32.445
-34.024
-35.369
-36.525
-37.53
-38.412
-39.203
-39.93
-40.606
-41.244
-41.856
-42.449
-43.033
-43.612
-44.176
-44.705
-45.166
-45.521
-45.744
-45.822
-45.746
-45.517
-45.135
-44.604
-43.939
-43.158
-42.276
-41.306
-40.258
-39.142
-37.972
-36.766
-35.547
-34.338
-33.157
-32.018
-30.931
-29.903
-28.939
-28.043
-27.213
-26.443
-25.73
-25.073
-24.47
-23.922
-23.427
-22.983
-22.587
-22.236
-21.927
-21.659
-21.427
-21.23
-21.065
-20.931
-20.825
-20.748
-20.697
-20.672
-20.671
-20.69
-20.729
-20.786
-20.858
-20.944
-21.041
-21.15
-21.269
-21.397
-21.533
-21.679
-21.833
-21.995
-22.165
-22.343
-22.53
-22.725
-22.929
-23.141
-23.361
-23.589
-23.825
-24.068
-24.319
-24.577
-24.843
-25.114
-25.392
-25.677
-25.966
-26.261
-26.56
-26.863
-27.169
-27.478
-27.788
-28.099
-28.41
-28.719
-29.025
-29.327
-29.624
-29.914
-30.194
-30.465
-30.723
-30.967
-31.196
-31.406
-31.597
-31.767
-31.914
-32.036
-32.132
-32.2
-32.238
-32.245
-32.221
-32.162
-32.068
-31.939
-31.772
-31.567
-31.323
-31.039
-30.715
-30.351
-29.946
-29.501
-29.015
-28.49
-27.924
-27.32
-26.677
-25.998
-25.283
-24.534
-23.754
-22.944
-22.107
-21.245
-20.361
-19.459
-18.541
-17.611
-16.672
-15.728
-14.783
-13.842
-12.907
-11.984
-11.077
-10.189
-9.326
-8.492
-7.691
-6.926
-6.203
-5.525
-4.897
-4.322
-3.804
-3.347
-2.955
-2.631
-2.378
-2.198
-2.095
-2.07
-2.124
-2.26
-2.479
-2.78
-3.164
-3.631
-4.18
-4.811
-5.523
-6.312
-7.178
-8.119
-9.131
-10.213
-11.36
-12.571
-13.842
-15.171
-16.556
-17.993
-19.478
-21.01
-22.583
-24.193
-25.837
-27.508
-29.201
-30.91
-32.63
-34.356
-36.084
-37.809
-39.526
-41.231
-42.92
-44.588
-46.231
-47.842
-49.415
-50.946
-52.433
-53.876
-55.275
-56.625
-57.925
-59.17
-60.351
-61.46
-62.484
-63.401
-64.195
-64.847
-65.344
-65.679
-65.841
-65.82
-65.605
-65.178
-64.53
-63.658
-62.56
-61.24
-59.716
-58.015
-56.182
-54.285
-52.386
-50.551
-48.844
-47.324
-46.054
-45.097
-44.515
-44.369
-44.709
-45.574
-46.997
-48.989
-51.512
-54.501
-57.844
-61.397
-65.043
-68.639
-72.004
-74.965
-77.326
-78.9
-79.552
-79.079
-77.184
-73.652
-68.364
-61.348
-52.919
-43.429
-33.182
-22.726
-12.743
-3.697
4.197
11.177
18.064
25.892
35.691
48.785
66.765
89.179
113.429
136.914
155.838
170.449
186.065
202.579
217.327
221.657
196.841
133.412
29.052
-113.196
-273.865
-433.75
-575.903
-679.825
-735.678
-742.49
-701.852
-624.022
-524.715
-415.166
-309.415
-223.107
-160.363
-122.668
-105.669
-94.958
-83.536
-69.722
-54.405
-44.421
-42.343
-45.441
-50.144
-52.253
-49.956
-43.939
-35.324
-25.3
-14.691
-4.473
4.064
10.212
13.736
14.796
13.934
11.608
8.204
4.319
0.621
-2.441
-4.603
-5.798
-6.124
-5.636
-4.373
-2.427
0.085
3.046
6.35
9.915
13.68
17.567
21.479
25.316
28.979
32.385
35.466
38.184
40.517
42.458
44.018
45.217
46.081
46.651
46.969
47.081
47.031
46.861
46.613
46.331
46.059
45.839
45.706
45.683
45.784
46.019
46.398
46.932
47.628
48.487
49.509
50.696
52.055
53.595
55.318
57.221
59.297
61.538
63.946
66.525
69.282
72.22
75.338
78.628
82.087
85.72
89.523
93.485
97.589
101.809
106.135
110.574
115.125
119.783
124.538
129.369
134.264
139.218
144.222
149.272
154.357
159.455
164.563
169.691
174.851
180.066
185.344
190.671
196.048
201.485
206.987
212.557
218.186
223.849
229.524
235.195
240.841
246.437
251.945
257.304
262.453
267.324
271.852
275.973
279.616
282.698
285.154
286.937
288.013
288.367
287.983
286.845
284.953
282.327
278.998
275.007
270.399
265.216
259.516
253.373
246.861
240.058
233.026
225.796
218.404
210.876
203.234
195.504
187.686
179.761
171.715
163.543
155.243
146.829
138.304
129.652
120.876
111.984
103.007
94.002
85.016
76.088
67.264
58.594
50.141
41.992
34.213
26.852
19.951
13.528
7.607
2.217
-2.635
-6.963
-10.794
-14.182
-17.164
-19.765
-22.018
-23.958
-25.628
-27.091
-28.389
-29.554
-30.612
-31.58
-32.477
-33.324
-34.127
-34.876
-35.555
-36.138
-36.609
-36.968
-37.211
-37.336
-37.34
-37.213
-36.954
-36.574
-36.081
-35.484
-34.793
-34.013
-33.159
-32.252
-31.315
-30.371
-29.441
-28.536
-27.667
-26.845
-26.077
-25.371
-24.731
-24.156
-23.646
-23.202
-22.826
-22.521
-22.285
-22.115
-22.008
-21.96
-21.967
-22.028
-22.138
-22.294
-22.494
-22.734
-23.013
-23.329
-23.679
-24.061
-24.47
-24.903
-25.356
-25.825
-26.308
-26.799
-27.295
-27.794
-28.293
-28.789
-29.281
-29.766
-30.242
-30.707
-31.161
-31.602
-32.028
-32.438
-32.833
-33.211
-33.571
-33.914
-34.24
-34.548
-34.839
-35.114
-35.371
-35.613
-35.84
-36.053
-36.252
-36.439
-36.615
-36.782
-36.94
-37.092
-37.239
-37.381
-37.522
-37.662
-37.802
-37.945
-38.09
-38.24
-38.395
-38.557
-38.726
-38.904
-39.092
-39.29
-39.499
-39.721
-39.956
-40.204
-40.466
-40.744
-41.037
-41.345
-41.67
-42.012
-42.37
-42.746
-43.138
-43.547
-43.974
-44.417
-44.877
-45.353
-45.846
-46.354
-46.878
-47.416
-47.969
-48.536
-49.116
-49.708
-50.313
-50.928
-51.554
-52.19
-52.834
-53.485
-54.143
-54.805
-55.47
-56.137
-56.804
-57.469
-58.13
-58.786
-59.433
-60.071
-60.695
-61.305
-61.897
-62.469
-63.018
-63.541
-64.036
-64.501
-64.932
-65.327
-65.684
-66
-66.272
-66.499
-66.677
-66.806
-66.883
-66.905
-66.873
-66.784
-66.638
-66.434
-66.171
-65.851
-65.472
-65.036
-64.544
-63.998
-63.399
-62.749
-62.053
-61.312
-60.531
-59.713
-58.864
-57.987
-57.088
-56.173
-55.245
-54.313
-53.38
-52.453
-51.538
-50.641
-49.768
-48.927
-48.122
-47.36
-46.648
-45.99
-45.394
-44.863
-44.403
-44.019
-43.714
-43.494
-43.36
-43.317
-43.366
-43.51
-43.75
-44.087
-44.522
-45.053
-45.681
-46.403
-47.218
-48.123
-49.116
-50.194
-51.353
-52.591
-53.903
-55.287
-56.738
-58.251
-59.822
-61.445
-63.115
-64.826
-66.573
-68.348
-70.144
-71.955
-73.776
-75.6
-77.422
-79.234
-81.03
-82.804
-84.551
-86.264
-87.939
-89.568
-91.145
-92.664
-94.125
-95.525
-96.862
-98.131
-99.325
-100.438
-101.461
-102.387
-103.203
-103.893
-104.443
-104.834
-105.057
-105.1
-104.959
-104.628
-104.096
-103.355
-102.402
-101.237
-99.874
-98.337
-96.651
-94.851
-92.992
-91.131
-89.343
-87.712
-86.319
-85.24
-84.532
-84.229
-84.368
-84.992
-86.163
-87.933
-90.302
-93.214
-96.567
-100.278
-104.321
-108.581
-112.773
-116.459
-119.175
-120.646
-120.905
-119.984
-117.624
-113.663
-108.243
-101.967
-95.854
-90.558
-85.977
-81.861
-78.39
-75.672
-73.438
-70.646
-65.378
-55.953
-41.613
-22.017
3.586
34.148
66.422
96.92
120.843
138.177
154.618
171.745
188.235
193.683
167.849
98.344
-19.937
-179.453
-356.094
-525.367
-664.012
-755.182
-794.984
-787.727
-742.131
-667.94
-576.812
-477.319
-379.288
-296.647
-234.579
-194.879
-174.279
-160.165
-146.021
-130.344
-113.934
-102.631
-98.484
-98.872
-100.474
-99.58
-94.692
-86.521
-76.161
-64.779
-53.191
-42.346
-33.459
-27.169
-23.651
-22.713
-23.796
-26.419
-30.17
-34.44
-38.559
-42.065
-44.668
-46.272
-46.945
-46.72
-45.619
-43.721
-41.129
-37.955
-34.307
-30.273
-25.926
-21.354
-16.663
-11.968
-7.383
-3.008
1.07
4.795
8.139
11.082
13.631
15.8
17.612
19.105
20.326
21.318
22.128
22.8
23.373
23.894
24.408
24.957
25.579
26.301
27.137
28.1
29.199
30.436
31.815
33.334
34.986
36.771
38.686
40.734
42.914
45.225
47.665
50.233
52.928
55.75
58.7
61.779
64.987
68.325
71.793
75.394
79.127
82.991
86.983
91.103
95.348
99.722
104.221
108.839
113.57
118.404
123.332
128.341
133.414
138.531
143.67
148.812
153.945
159.057
164.133
169.154
174.101
178.953
183.698
188.331
192.847
197.242
201.52
205.691
209.778
213.809
217.804
221.77
225.704
229.595
233.437
237.223
240.945
244.585
248.11
251.481
254.664
257.617
260.288
262.613
264.505
265.882
266.681
266.859
266.384
265.236
263.389
260.828
257.55
253.563
248.892
243.564
237.597
231.022
223.885
216.241
208.172
199.752
191.029
182.048
172.85
163.471
153.962
144.36
134.694
124.995
115.29
105.614
96.017
86.543
77.23
68.122
59.243
50.627
42.328
34.389
26.848
19.741
13.09
6.918
1.255
-3.885
-8.5
-12.589
-16.176
-19.285
-21.943
-24.197
-26.087
-27.652
-28.948
-30.015
-30.885
-31.594
-32.165
-32.621
-32.985
-33.272
-33.488
-33.641
-33.729
-33.747
-33.684
-33.517
-33.227
-32.803
-32.23
-31.504
-30.625
-29.594
-28.417
-27.11
-25.683
-24.152
-22.532
-20.838
-19.086
-17.296
-15.486
-13.684
-11.91
-10.18
-8.51
-6.911
-5.391
-3.958
-2.616
-1.364
-0.203
0.866
1.845
2.732
3.527
4.233
4.851
5.384
5.836
6.209
6.506
6.73
6.884
6.972
6.996
6.958
6.863
6.713
6.513
6.268
5.983
5.662
5.31
4.934
4.538
4.126
3.704
3.275
2.843
2.413
1.987
1.568
1.161
0.767
0.389
0.029
-0.309
-0.625
-0.917
-1.184
-1.425
-1.638
-1.823
-1.98
-2.108
-2.208
-2.279
-2.321
-2.337
-2.325
-2.288
-2.227
-2.143
-2.037
-1.913
-1.771
-1.614
-1.443
-1.262
-1.072
-0.876
-0.675
-0.472
-0.269
-0.069
0.129
0.32
0.504
0.68
0.845
1
1.143
1.275
1.393
1.499
1.592
1.673
1.741
1.798
1.844
1.881
1.909
1.93
1.946
1.959
1.97
1.982
1.998
2.018
2.047
2.086
2.138
2.207
2.294
2.404
2.538
2.7
2.891
3.114
3.371
3.663
3.992
4.359
4.765
5.209
5.693
6.215
6.775
7.373
8.006
8.673
9.372
10.1
10.854
11.632
12.43
13.244
14.071
14.906
15.745
16.585
17.42
18.246
19.057
19.849
20.615
21.351
22.051
22.711
23.325
23.889
24.398
24.848
25.237
25.56
25.814
25.997
26.107
26.141
26.099
25.98
25.783
25.508
25.157
24.729
24.228
23.652
23.006
22.289
21.505
20.655
19.741
18.765
17.729
16.638
15.495
14.303
13.067
11.792
10.481
9.141
7.777
6.393
4.994
3.583
2.166
0.748
-0.666
-2.072
-3.466
-4.845
-6.202
-7.532
-8.829
-10.09
-11.313
-12.496
-13.635
-14.723
-15.755
-16.721
-17.615
-18.428
-19.145
-19.752
-20.233
-20.572
-20.762
-20.798
-20.675
-20.391
-19.938
-19.316
-18.525
-17.572
-16.471
-15.241
-13.906
-12.496
-11.064
-9.66
-8.351
-7.216
-6.312
-5.696
-5.404
-5.448
-5.852
-6.653
-7.888
-9.591
-11.774
-14.372
-17.332
-20.643
-24.194
-27.797
-31.158
-33.792
-35.274
-35.467
-34.306
-31.709
-27.794
-22.726
-16.869
-11.168
-6.58
-3.485
-1.995
-2.044
-3.171
-4.948
-6.664
-6.622
-2.95
5.695
20.293
41.397
69.177
102.254
137.389
170.719
197.316
216.697
233.188
247.07
257.569
257.417
230.294
166.74
64.584
-66.473
-221.771
-407.169
-572.093
-654.208
-682.067
-693.791
-666.373
-590.751
-490.773
-380.099
-271.922
-184.409
-123
-89.54
-78.6
-73.587
-66.235
-54.36
-39.171
-28.552
-25.695
-28.072
-32.175
-33.652
-30.674
-24.079
-15.074
-4.89
5.643
15.62
23.859
29.708
32.971
33.837
32.839
30.417
26.945
22.984
19.158
15.895
13.452
11.899
11.15
11.163
11.907
13.304
15.254
17.655
20.412
23.453
26.718
30.14
33.631
37.096
40.442
43.586
46.457
49.011
51.226
53.091
54.615
55.816
56.717
57.356
57.777
58.02
58.128
58.142
58.097
58.034
57.994
58.014
58.128
58.361
58.725
59.235
59.897
60.714
61.69
62.822
64.105
65.536
67.114
68.837
70.705
72.715
74.865
77.152
79.575
82.131
84.821
87.643
90.595
93.677
96.889
100.228
103.693
107.281
110.991
114.821
118.771
122.839
127.018
131.302
135.681
140.144
144.678
149.267
153.889
158.524
163.154
167.765
172.346
176.884
181.361
185.757
190.054
194.238
198.307
202.256
206.086
209.801
213.412
216.943
220.427
223.884
227.325
230.748
234.144
237.505
240.827
244.102
247.316
250.436
253.422
256.233
258.822
261.135
263.103
264.637
265.645
266.058
265.827
264.927
263.34
261.044
258.022
254.265
249.783
244.606
238.766
232.3
225.247
217.659
209.608
201.186
192.48
183.548
174.43
165.145
155.718
146.187
136.584
126.939
117.268
107.578
97.886
88.219
78.602
69.053
59.585
50.197
40.91
31.774
22.849
14.206
5.901
-2.03
-9.55
-16.62
-23.204
-29.269
-34.8
-39.798
-44.266
-48.206
-51.626
-54.536
-56.973
-59
-60.679
-62.075
-63.243
-64.22
-65.044
-65.757
-66.39
-66.969
-67.511
-68.02
-68.506
-68.982
-69.45
-69.911
-70.35
-70.737
-71.048
-71.264
-71.373
-71.37
-71.254
-71.022
-70.677
-70.233
-69.699
-69.092
-68.424
-67.699
-66.931
-66.13
-65.316
-64.508
-63.723
-62.973
-62.269
-61.615
-61.018
-60.482
-60.004
-59.582
-59.212
-58.89
-58.615
-58.385
-58.2
-58.056
-57.951
-57.881
-57.844
-57.837
-57.859
-57.906
-57.977
-58.071
-58.187
-58.323
-58.481
-58.658
-58.853
-59.065
-59.292
-59.533
-59.785
-60.048
-60.32
-60.599
-60.886
-61.18
-61.479
-61.785
-62.096
-62.412
-62.734
-63.06
-63.391
-63.727
-64.067
-64.41
-64.756
-65.104
-65.453
-65.803
-66.151
-66.498
-66.842
-67.182
-67.517
-67.846
-68.167
-68.48
-68.784
-69.078
-69.361
-69.632
-69.891
-70.137
-70.37
-70.589
-70.795
-70.986
-71.163
-71.327
-71.476
-71.611
-71.732
-71.84
-71.935
-72.019
-72.091
-72.154
-72.208
-72.254
-72.295
-72.332
-72.366
-72.4
-72.434
-72.47
-72.51
-72.556
-72.608
-72.669
-72.739
-72.82
-72.912
-73.018
-73.136
-73.268
-73.414
-73.574
-73.749
-73.937
-74.138
-74.352
-74.578
-74.814
-75.06
-75.314
-75.573
-75.837
-76.101
-76.365
-76.625
-76.879
-77.122
-77.352
-77.566
-77.759
-77.929
-78.073
-78.187
-78.267
-78.311
-78.315
-78.278
-78.195
-78.065
-77.884
-77.652
-77.366
-77.024
-76.626
-76.17
-75.656
-75.083
-74.451
-73.76
-73.011
-72.205
-71.343
-70.427
-69.459
-68.44
-67.375
-66.267
-65.118
-63.934
-62.719
-61.477
-60.214
-58.934
-57.643
-56.347
-55.05
-53.758
-52.477
-51.213
-49.97
-48.755
-47.573
-46.429
-45.329
-44.277
-43.277
-42.335
-41.455
-40.641
-39.896
-39.224
-38.627
-38.11
-37.673
-37.319
-37.05
-36.868
-36.772
-36.763
-36.84
-37.005
-37.254
-37.586
-38
-38.494
-39.065
-39.711
-40.428
-41.214
-42.066
-42.981
-43.955
-44.984
-46.065
-47.194
-48.366
-49.577
-50.822
-52.093
-53.386
-54.695
-56.014
-57.339
-58.661
-59.974
-61.274
-62.555
-63.813
-65.041
-66.229
-67.369
-68.454
-69.48
-70.446
-71.349
-72.182
-72.942
-73.624
-74.225
-74.742
-75.165
-75.474
-75.649
-75.673
-75.535
-75.232
-74.763
-74.121
-73.301
-72.29
-71.086
-69.699
-68.141
-66.422
-64.558
-62.573
-60.51
-58.449
-56.482
-54.694
-53.157
-51.919
-51.005
-50.456
-50.331
-50.693
-51.596
-53.063
-55.044
-57.51
-60.476
-63.874
-67.534
-71.147
-74.196
-76.209
-77.007
-76.498
-74.579
-71.336
-66.905
-61.651
-56.56
-52.675
-50.461
-50.062
-51.373
-53.853
-56.979
-59.897
-60.733
-57.374
-48.212
-32.043
-8.306
22.945
60.023
99.104
135.701
164.656
185.456
202.476
216.946
228.365
227.441
195.884
122.5
2.139
-157.6
-332.877
-499.941
-636.171
-724.545
-761.169
-748.265
-691.809
-603.659
-497.887
-387.99
-290.32
-217.091
-170.13
-146.685
-136.542
-126.887
-113.093
-95.115
-76.886
-64.626
-59.531
-58.992
-59.423
-57.304
-51.645
-43.286
-33.243
-22.533
-11.811
-1.862
6.264
12.011
15.267
16.253
15.462
13.317
10.181
6.577
3.103
0.17
-1.98
-3.259
-3.726
-3.415
-2.343
-0.585
1.759
4.588
7.806
11.336
15.115
19.069
23.1
27.118
31.028
34.751
38.219
41.377
44.19
46.643
48.74
50.498
51.944
53.109
54.033
54.76
55.335
55.797
56.188
56.543
56.9
57.294
57.756
58.317
58.994
59.803
60.752
61.847
63.089
64.479
66.015
67.692
69.508
71.46
73.547
75.77
78.128
80.62
83.246
86.005
88.896
91.922
95.082
98.378
101.81
105.377
109.078
112.915
116.89
121.004
125.256
129.639
134.148
138.773
143.506
148.332
153.235
158.194
163.189
168.205
173.227
178.245
183.245
188.207
193.115
197.952
202.708
207.378
211.958
216.447
220.851
225.184
229.463
233.715
237.957
242.189
246.413
250.616
254.792
258.934
263.026
267.044
270.957
274.728
278.31
281.659
284.709
287.383
289.601
291.278
292.346
292.763
292.488
291.494
289.759
287.267
284.016
280.023
275.31
269.904
263.849
257.19
250
242.369
234.387
226.145
217.72
209.171
200.557
191.929
183.333
174.806
166.378
158.067
149.892
141.872
134.018
126.334
118.813
111.43
104.167
97.013
89.96
83.011
76.171
69.445
62.844
56.386
50.088
43.97
38.049
32.335
26.844
21.59
16.592
11.874
7.451
3.333
-0.471
-3.958
-7.127
-9.981
-12.524
-14.769
-16.726
-18.406
-19.82
-20.976
-21.887
-22.564
-23.022
-23.274
-23.334
-23.216
-22.932
-22.497
-21.923
-21.224
-20.411
-19.497
-18.492
-17.41
-16.262
-15.062
-13.82
-12.548
-11.257
-9.958
-8.66
-7.373
-6.104
-4.861
-3.651
-2.48
-1.352
-0.273
0.753
1.724
2.635
3.485
4.272
4.994
5.649
6.237
6.759
7.212
7.598
7.918
8.171
8.36
8.485
8.549
8.554
8.501
8.394
8.235
8.027
7.772
7.474
7.137
6.762
6.353
5.913
5.445
4.951
4.433
3.894
3.336
2.759
2.167
1.56
0.94
0.308
-0.335
-0.987
-1.648
-2.318
-2.994
-3.677
-4.366
-5.06
-5.759
-6.463
-7.17
-7.881
-8.596
-9.315
-10.037
-10.763
-11.492
-12.225
-12.963
-13.704
-14.45
-15.2
-15.955
-16.714
-17.478
-18.246
-19.017
-19.791
-20.568
-21.346
-22.125
-22.903
-23.68
-24.455
-25.226
-25.992
-26.751
-27.504
-28.248
-28.983
-29.707
-30.42
-31.12
-31.807
-32.48
-33.139
-33.782
-34.409
-35.021
-35.617
-36.196
-36.759
-37.305
-37.836
-38.351
-38.85
-39.335
-39.806
-40.265
-40.711
-41.147
-41.574
-41.993
-42.407
-42.816
-43.223
-43.63
-44.037
-44.448
-44.863
-45.285
-45.715
-46.154
-46.603
-47.064
-47.537
-48.023
-48.521
-49.031
-49.554
-50.088
-50.633
-51.186
-51.747
-52.314
-52.885
-53.458
-54.029
-54.597
-55.158
-55.71
-56.248
-56.77
-57.273
-57.751
-58.202
-58.622
-59.008
-59.354
-59.658
-59.916
-60.125
-60.282
-60.383
-60.425
-60.408
-60.328
-60.184
-59.976
-59.702
-59.363
-58.958
-58.49
-57.959
-57.368
-56.719
-56.015
-55.259
-54.455
-53.608
-52.721
-51.799
-50.848
-49.871
-48.876
-47.868
-46.853
-45.837
-44.825
-43.825
-42.843
-41.885
-40.957
-40.065
-39.215
-38.413
-37.663
-36.971
-36.342
-35.78
-35.288
-34.87
-34.529
-34.268
-34.088
-33.99
-33.975
-34.044
-34.196
-34.433
-34.752
-35.152
-35.634
-36.196
-36.836
-37.554
-38.347
-39.213
-40.149
-41.152
-42.219
-43.347
-44.532
-45.767
-47.049
-48.374
-49.736
-51.132
-52.556
-54.002
-55.466
-56.941
-58.425
-59.912
-61.396
-62.87
-64.328
-65.765
-67.176
-68.558
-69.904
-71.207
-72.459
-73.65
-74.772
-75.815
-76.762
-77.599
-78.308
-78.871
-79.275
-79.511
-79.57
-79.445
-79.131
-78.625
-77.928
-77.043
-75.985
-74.77
-73.424
-71.978
-70.476
-68.967
-67.514
-66.193
-65.074
-64.217
-63.664
-63.431
-63.535
-64.011
-64.896
-66.227
-68.011
-70.182
-72.674
-75.466
-78.464
-81.487
-84.24
-86.227
-86.994
-86.386
-84.341
-80.787
-75.858
-69.726
-62.765
-55.961
-50.337
-46.327
-44.076
-43.507
-44.114
-45.466
-46.828
-46.446
-42.409
-33.271
-17.899
4.295
33.505
68.296
104.946
139.18
166.131
185.986
204.527
223.536
242.156
250.102
226.548
158.76
41.236
-119.427
-299.563
-474.897
-622.473
-723.719
-771.291
-766.707
-716.331
-629.963
-523.178
-408.535
-299.722
-213.686
-154.721
-122.597
-111.452
-105.323
-96.781
-84.8
-70.983
-62.631
-62.15
-66.297
-71.27
-72.908
-69.597
-62.33
-52.399
-41.026
-29.118
-17.717
-8.088
-0.923
3.573
5.614
5.751
4.427
2.034
-0.862
-3.649
-5.93
-7.489
-8.285
-8.425
-7.97
-6.955
-5.456
-3.554
-1.317
1.201
3.956
6.912
10.013
13.183
16.353
19.45
22.422
25.23
27.851
30.291
32.563
34.686
36.676
38.536
40.265
41.858
43.323
44.674
45.93
47.112
48.241
49.34
50.428
51.52
52.62
53.714
54.79
55.841
56.867
57.882
58.908
59.976
61.11
62.332
63.66
65.107
66.681
68.391
70.24
72.232
74.376
76.686
79.176
81.86
84.743
87.825
91.1
94.554
98.178
101.962
105.898
109.983
114.214
118.584
123.089
127.724
132.48
137.344
142.298
147.316
152.379
157.47
162.573
167.68
172.776
177.843
182.866
187.829
192.719
197.53
202.256
206.893
211.446
215.926
220.351
224.749
229.134
233.511
237.879
242.229
246.551
250.839
255.074
259.231
263.276
267.169
270.861
274.304
277.431
280.159
282.409
284.092
285.135
285.488
285.107
283.961
282.033
279.309
275.79
271.494
266.447
260.683
254.255
247.211
239.621
231.572
223.15
214.445
205.543
196.51
187.409
178.292
169.196
160.154
151.198
142.34
133.593
124.964
116.447
108.046
99.772
91.617
83.58
75.656
67.836
60.125
52.533
45.071
37.766
30.641
23.714
17.014
10.575
4.426
-1.391
-6.856
-11.975
-16.742
-21.155
-25.214
-28.909
-32.241
-35.223
-37.862
-40.17
-42.163
-43.846
-45.24
-46.371
-47.266
-47.961
-48.472
-48.796
-48.94
-48.911
-48.716
-48.374
-47.894
-47.282
-46.548
-45.709
-44.782
-43.785
-42.731
-41.624
-40.472
-39.278
-38.053
-36.818
-35.587
-34.373
-33.187
-32.039
-30.938
-29.897
-28.923
-28.017
-27.179
-26.411
-25.713
-25.089
-24.543
-24.073
-23.68
-23.362
-23.116
-22.941
-22.835
-22.792
-22.81
-22.883
-23.007
-23.18
-23.397
-23.656
-23.952
-24.281
-24.638
-25.021
-25.424
-25.843
-26.275
-26.714
-27.158
-27.602
-28.045
-28.483
-28.913
-29.333
-29.741
-30.135
-30.512
-30.872
-31.212
-31.532
-31.83
-32.106
-32.358
-32.586
-32.789
-32.968
-33.122
-33.251
-33.355
-33.434
-33.489
-33.519
-33.527
-33.51
-33.472
-33.411
-33.328
-33.226
-33.103
-32.962
-32.804
-32.629
-32.439
-32.235
-32.019
-31.792
-31.555
-31.312
-31.062
-30.809
-30.553
-30.299
-30.047
-29.799
-29.559
-29.328
-29.109
-28.903
-28.714
-28.544
-28.394
-28.268
-28.166
-28.092
-28.048
-28.035
-28.055
-28.111
-28.203
-28.334
-28.505
-28.716
-28.969
-29.263
-29.6
-29.979
-30.399
-30.861
-31.362
-31.901
-32.476
-33.086
-33.727
-34.396
-35.091
-35.807
-36.542
-37.29
-38.048
-38.812
-39.577
-40.339
-41.093
-41.834
-42.557
-43.258
-43.932
-44.574
-45.179
-45.743
-46.261
-46.729
-47.143
-47.499
-47.795
-48.026
-48.191
-48.288
-48.314
-48.27
-48.153
-47.965
-47.706
-47.378
-46.981
-46.52
-45.996
-45.414
-44.777
-44.088
-43.354
-42.578
-41.765
-40.922
-40.052
-39.164
-38.262
-37.354
-36.445
-35.544
-34.655
-33.786
-32.944
-32.135
-31.365
-30.641
-29.967
-29.351
-28.796
-28.309
-27.893
-27.553
-27.292
-27.113
-27.018
-27.009
-27.086
-27.25
-27.502
-27.841
-28.266
-28.778
-29.375
-30.056
-30.821
-31.667
-32.592
-33.594
-34.668
-35.813
-37.023
-38.294
-39.62
-40.995
-42.415
-43.874
-45.366
-46.886
-48.425
-49.979
-51.539
-53.1
-54.657
-56.201
-57.725
-59.22
-60.68
-62.101
-63.48
-64.809
-66.081
-67.286
-68.414
-69.455
-70.399
-71.226
-71.918
-72.455
-72.82
-72.998
-72.981
-72.762
-72.332
-71.687
-70.822
-69.739
-68.449
-66.968
-65.318
-63.53
-61.643
-59.716
-57.81
-56.002
-54.377
-53.008
-51.959
-51.277
-50.984
-51.099
-51.66
-52.701
-54.247
-56.299
-58.777
-61.603
-64.743
-68.073
-71.38
-74.346
-76.461
-77.263
-76.594
-74.38
-70.531
-65.166
-58.45
-50.77
-43.126
-36.554
-31.498
-28.136
-26.449
-26.015
-26.465
-27.089
-26.141
-21.699
-12.296
3.215
25.512
54.912
89.914
126.701
160.807
186.93
205.471
222.498
240.108
258.323
266.026
241.459
169.359
42.938
-123.1
-315.349
-529.747
-706.315
-784.789
-798.308
-789.933
-745.592
-657.904
-549.117
-432.507
-318.679
-225.151
-157.684
-117.343
-99.057
-87.163
-74.167
-58.833
-42.603
-32.579
-31.049
-34.692
-39.554
-41.397
-38.544
-31.894
-22.695
-12.169
-1.222
9.057
17.321
22.861
25.508
25.522
23.523
20.031
15.498
10.58
6.004
2.254
-0.411
-1.938
-2.444
-2.003
-0.657
1.498
4.332
7.717
11.532
15.676
20.076
24.64
29.248
33.78
38.117
42.153
45.826
49.099
51.954
54.391
56.423
58.069
59.365
60.358
61.094
61.622
61.988
62.235
62.412
62.568
62.754
63.012
63.373
63.855
64.47
65.224
66.123
67.167
68.353
69.674
71.128
72.713
74.429
76.276
78.254
80.36
82.592
84.946
87.422
90.018
92.735
95.571
98.527
101.604
104.802
108.121
111.56
115.118
118.792
122.58
126.475
130.473
134.571
138.766
143.057
147.438
151.902
156.439
161.04
165.692
170.38
175.085
179.784
184.455
189.082
193.647
198.139
202.541
206.833
210.998
215.018
218.88
222.58
226.116
229.487
232.704
235.786
238.753
241.64
244.464
247.231
249.944
252.597
255.186
257.71
260.16
262.522
264.778
266.904
268.863
270.613
272.091
273.212
273.894
274.045
273.588
272.476
270.669
268.134
264.854
260.811
255.999
250.424
244.089
236.997
229.182
220.691
211.597
202.014
192.05
181.826
171.459
161.041
150.652
140.371
130.252
120.347
110.708
101.377
92.408
83.864
75.777
68.167
61.033
54.338
48.044
42.108
36.469
31.087
25.932
20.977
16.216
11.651
7.27
3.068
-0.97
-4.873
-8.656
-12.325
-15.883
-19.31
-22.587
-25.69
-28.579
-31.225
-33.61
-35.722
-37.564
-39.144
-40.467
-41.54
-42.372
-42.96
-43.311
-43.432
-43.328
-43.014
-42.508
-41.832
-41.016
-40.088
-39.073
-37.989
-36.854
-35.677
-34.474
-33.255
-32.027
-30.802
-29.59
-28.401
-27.247
-26.139
-25.083
-24.085
-23.149
-22.278
-21.473
-20.738
-20.075
-19.485
-18.971
-18.534
-18.177
-17.901
-17.707
-17.593
-17.559
-17.601
-17.718
-17.907
-18.163
-18.482
-18.862
-19.297
-19.785
-20.32
-20.899
-21.516
-22.168
-22.851
-23.559
-24.288
-25.035
-25.794
-26.562
-27.335
-28.11
-28.883
-29.651
-30.412
-31.163
-31.902
-32.627
-33.336
-34.027
-34.699
-35.352
-35.984
-36.595
-37.185
-37.754
-38.303
-38.833
-39.344
-39.838
-40.316
-40.779
-41.228
-41.664
-42.09
-42.506
-42.915
-43.317
-43.714
-44.107
-44.497
-44.886
-45.275
-45.664
-46.054
-46.447
-46.842
-47.24
-47.641
-48.046
-48.455
-48.867
-49.282
-49.7
-50.119
-50.539
-50.958
-51.374
-51.787
-52.195
-52.594
-52.983
-53.36
-53.723
-54.067
-54.392
-54.694
-54.971
-55.219
-55.437
-55.622
-55.772
-55.883
-55.955
-55.985
-55.972
-55.913
-55.807
-55.653
-55.45
-55.197
-54.894
-54.539
-54.134
-53.679
-53.173
-52.619
-52.018
-51.371
-50.68
-49.948
-49.178
-48.373
-47.537
-46.673
-45.786
-44.88
-43.96
-43.03
-42.097
-41.164
-40.237
-39.321
-38.421
-37.543
-36.693
-35.874
-35.094
-34.356
-33.665
-33.027
-32.446
-31.926
-31.47
-31.084
-30.769
-30.53
-30.368
-30.286
-30.287
-30.371
-30.54
-30.795
-31.136
-31.562
-32.072
-32.667
-33.345
-34.104
-34.941
-35.856
-36.845
-37.908
-39.041
-40.24
-41.504
-42.828
-44.209
-45.644
-47.127
-48.652
-50.214
-51.808
-53.427
-55.067
-56.721
-58.382
-60.045
-61.703
-63.351
-64.985
-66.598
-68.18
-69.721
-71.216
-72.657
-74.042
-75.367
-76.624
-77.807
-78.912
-79.933
-80.865
-81.697
-82.409
-82.981
-83.394
-83.636
-83.704
-83.592
-83.293
-82.805
-82.12
-81.235
-80.161
-78.908
-77.484
-75.905
-74.196
-72.395
-70.579
-68.832
-67.23
-65.848
-64.731
-63.907
-63.418
-63.307
-63.624
-64.414
-65.691
-67.424
-69.601
-72.236
-75.262
-78.509
-81.647
-84.207
-85.767
-86.056
-84.933
-82.237
-77.984
-72.449
-66.158
-60.031
-55.064
-51.903
-50.795
-51.871
-54.86
-58.966
-63.086
-65.416
-63.876
-56.688
-42.496
-20.24
10.7
48.577
89.368
128.513
160.651
185.475
208.404
231.195
253.132
264.119
242.956
175.776
56.088
-109.333
-295.492
-476.316
-627.556
-731.092
-781.094
-780.236
-734.949
-653.57
-549.684
-434.849
-323.127
-232.663
-169.244
-133.331
-118.771
-109.363
-97.341
-81.4
-63.492
-51.535
-48.417
-51.504
-57.233
-60.74
-59.807
-55.163
-47.831
-38.955
-29.395
-19.801
-11.13
-4.407
-0.144
1.731
1.566
-0.174
-3.026
-6.565
-10.277
-13.574
-16.083
-17.666
-18.302
-18.084
-17.103
-15.401
-13.068
-10.232
-6.994
-3.453
0.304
4.222
8.223
12.209
16.089
19.768
23.163
26.228
28.938
31.28
33.264
34.907
36.231
37.276
38.084
38.699
39.164
39.518
39.8
40.05
40.308
40.615
41.007
41.511
42.141
42.91
43.824
44.887
46.103
47.468
48.98
50.635
52.433
54.373
56.457
58.685
61.054
63.561
66.206
68.987
71.905
74.96
78.151
81.477
84.939
88.536
92.268
96.133
100.127
104.248
108.491
112.855
117.34
121.944
126.66
131.478
136.39
141.381
146.439
151.545
156.676
161.811
166.929
172.013
177.056
182.042
186.955
191.776
196.48
201.051
205.484
209.773
213.914
217.911
221.771
225.517
229.186
232.803
236.383
239.926
243.417
246.847
250.211
253.505
256.72
259.839
262.831
265.668
268.328
270.767
272.931
274.742
276.093
276.901
277.109
276.676
275.583
273.806
271.311
268.08
264.106
259.382
253.917
247.704
240.73
233.016
224.607
215.585
206.064
196.139
185.879
175.35
164.609
153.725
142.775
131.826
120.934
110.168
99.607
89.35
79.508
70.156
61.337
53.068
45.337
38.147
31.509
25.425
19.892
14.894
10.41
6.426
2.926
-0.124
-2.783
-5.132
-7.261
-9.229
-11.08
-12.839
-14.521
-16.147
-17.735
-19.292
-20.817
-22.307
-23.76
-25.181
-26.573
-27.921
-29.198
-30.363
-31.378
-32.221
-32.88
-33.349
-33.629
-33.718
-33.623
-33.362
-32.954
-32.416
-31.762
-31.004
-30.153
-29.23
-28.258
-27.265
-26.273
-25.299
-24.357
-23.46
-22.617
-21.836
-21.12
-20.469
-19.881
-19.357
-18.899
-18.509
-18.189
-17.936
-17.751
-17.631
-17.575
-17.581
-17.649
-17.776
-17.96
-18.199
-18.493
-18.838
-19.234
-19.677
-20.164
-20.69
-21.251
-21.844
-22.464
-23.107
-23.768
-24.445
-25.133
-25.83
-26.531
-27.234
-27.935
-28.633
-29.325
-30.008
-30.68
-31.34
-31.985
-32.615
-33.227
-33.82
-34.393
-34.945
-35.475
-35.982
-36.468
-36.93
-37.371
-37.791
-38.191
-38.573
-38.937
-39.287
-39.624
-39.951
-40.268
-40.579
-40.885
-41.188
-41.491
-41.794
-42.1
-42.411
-42.727
-43.051
-43.383
-43.724
-44.076
-44.439
-44.813
-45.199
-45.597
-46.008
-46.432
-46.868
-47.316
-47.776
-48.247
-48.728
-49.217
-49.713
-50.212
-50.713
-51.212
-51.706
-52.19
-52.663
-53.12
-53.557
-53.973
-54.364
-54.725
-55.055
-55.35
-55.607
-55.823
-55.993
-56.112
-56.178
-56.188
-56.138
-56.028
-55.855
-55.616
-55.311
-54.941
-54.504
-54
-53.425
-52.774
-52.046
-51.247
-50.384
-49.462
-48.487
-47.465
-46.404
-45.315
-44.207
-43.081
-41.932
-40.755
-39.548
-38.318
-37.076
-35.834
-34.595
-33.357
-32.114
-30.869
-29.62
-28.366
-27.095
-25.791
-24.45
-23.086
-21.728
-20.405
-19.137
-17.932
-16.793
-15.723
-14.736
-13.849
-13.073
-12.417
-11.888
-11.502
-11.288
-11.279
-11.489
-11.908
-12.505
-13.25
-14.128
-15.128
-16.245
-17.468
-18.781
-20.17
-21.629
-23.157
-24.746
-26.379
-28.026
-29.656
-31.25
-32.81
-34.352
-35.89
-37.428
-38.966
-40.504
-42.048
-43.604
-45.169
-46.731
-48.274
-49.789
-51.273
-52.73
-54.166
-55.581
-56.963
-58.298
-59.575
-60.784
-61.913
-62.947
-63.86
-64.628
-65.239
-65.689
-65.979
-66.108
-66.072
-65.867
-65.488
-64.929
-64.192
-63.276
-62.179
-60.907
-59.476
-57.921
-56.304
-54.684
-53.114
-51.636
-50.269
-49.044
-48.008
-47.202
-46.675
-46.479
-46.634
-47.195
-48.244
-49.741
-51.563
-53.492
-55.148
-56.234
-56.569
-55.868
-53.931
-50.861
-46.904
-42.596
-38.743
-35.804
-34.067
-34.004
-35.764
-39.026
-43.218
-47.228
-49.671
-49.618
-46.132
-38.083
-24.589
-5.098
20.476
51.868
87.351
123.509
156.778
183.055
201.331
216.182
230.949
246.28
257.547
249.228
204.312
114.155
-18.054
-191.607
-404.358
-597.692
-701.908
-738.733
-749.769
-717.324
-636.865
-537.072
-431.035
-329.451
-247.923
-188.403
-151.056
-131.706
-116.518
-99.795
-81.009
-61.398
-47.821
-43.023
-44.795
-49.699
-52.991
-52.377
-48.187
-41.322
-32.94
-23.696
-14.057
-5.062
2.174
7.048
9.464
9.765
8.476
6.018
2.78
-0.703
-3.836
-6.22
-7.663
-8.152
-7.795
-6.68
-4.86
-2.421
0.521
3.856
7.481
11.308
15.276
19.303
23.291
27.144
30.767
34.078
37.029
39.595
41.768
43.558
44.986
46.073
46.857
47.381
47.688
47.822
47.828
47.743
47.61
47.473
47.373
47.348
47.427
47.625
47.956
48.428
49.045
49.811
50.728
51.793
53.005
54.366
55.875
57.537
59.353
61.32
63.437
65.703
68.118
70.681
73.393
76.254
79.263
82.42
85.725
89.177
92.775
96.517
100.397
104.412
108.557
112.831
117.232
121.755
126.392
131.133
135.967
140.881
145.861
150.886
155.932
160.978
166.006
170.998
175.942
180.822
185.617
190.31
194.88
199.316
203.613
207.765
211.768
215.63
219.362
222.982
226.519
229.988
233.393
236.73
239.989
243.162
246.246
249.228
252.09
254.809
257.354
259.692
261.793
263.605
265.06
266.088
266.608
266.562
265.913
264.626
262.678
260.05
256.717
252.671
247.916
242.451
236.285
229.43
221.9
213.74
205.024
195.825
186.23
176.308
166.117
155.724
145.192
134.583
123.966
113.404
102.957
92.704
82.719
73.072
63.836
55.049
46.727
38.887
31.536
24.681
18.333
12.488
7.134
2.263
-2.143
-6.11
-9.669
-12.878
-15.794
-18.464
-20.944
-23.265
-25.451
-27.525
-29.505
-31.402
-33.227
-34.985
-36.672
-38.294
-39.848
-41.325
-42.71
-43.973
-45.089
-46.04
-46.81
-47.391
-47.783
-47.983
-47.997
-47.839
-47.52
-47.056
-46.463
-45.755
-44.945
-44.053
-43.1
-42.113
-41.112
-40.116
-39.138
-38.191
-37.284
-36.427
-35.624
-34.873
-34.177
-33.536
-32.95
-32.421
-31.949
-31.533
-31.171
-30.86
-30.599
-30.385
-30.217
-30.094
-30.012
-29.972
-29.97
-30.007
-30.081
-30.189
-30.329
-30.498
-30.692
-30.909
-31.146
-31.399
-31.667
-31.946
-32.235
-32.532
-32.835
-33.143
-33.455
-33.769
-34.084
-34.399
-34.715
-35.03
-35.343
-35.655
-35.964
-36.271
-36.575
-36.875
-37.171
-37.462
-37.747
-38.026
-38.299
-38.565
-38.825
-39.078
-39.325
-39.565
-39.799
-40.026
-40.247
-40.462
-40.669
-40.869
-41.061
-41.244
-41.419
-41.585
-41.742
-41.89
-42.028
-42.157
-42.278
-42.389
-42.491
-42.584
-42.67
-42.749
-42.821
-42.889
-42.953
-43.016
-43.078
-43.141
-43.207
-43.275
-43.348
-43.426
-43.509
-43.597
-43.691
-43.79
-43.895
-44.007
-44.126
-44.254
-44.392
-44.541
-44.702
-44.874
-45.057
-45.248
-45.447
-45.65
-45.855
-46.058
-46.257
-46.449
-46.632
-46.805
-46.965
-47.109
-47.231
-47.326
-47.387
-47.412
-47.399
-47.348
-47.261
-47.144
-47.006
-46.861
-46.715
-46.57
-46.427
-46.278
-46.116
-45.936
-45.728
-45.492
-45.223
-44.915
-44.569
-44.18
-43.738
-43.226
-42.62
-41.888
-41.014
-39.992
-38.823
-37.525
-36.118
-34.629
-33.097
-31.553
-30.022
-28.53
-27.093
-25.728
-24.464
-23.333
-22.377
-21.648
-21.18
-20.995
-21.109
-21.514
-22.196
-23.128
-24.265
-25.569
-27.01
-28.564
-30.216
-31.954
-33.755
-35.595
-37.444
-39.264
-41.025
-42.705
-44.282
-45.752
-47.118
-48.395
-49.613
-50.797
-51.961
-53.119
-54.272
-55.421
-56.571
-57.721
-58.868
-60.015
-61.168
-62.33
-63.508
-64.698
-65.891
-67.072
-68.219
-69.311
-70.329
-71.248
-72.045
-72.697
-73.183
-73.496
-73.633
-73.586
-73.353
-72.917
-72.271
-71.414
-70.348
-69.084
-67.638
-66.03
-64.296
-62.498
-60.705
-59.006
-57.483
-56.196
-55.201
-54.527
-54.203
-54.293
-54.852
-55.934
-57.593
-59.798
-62.515
-65.746
-69.377
-73.219
-77.015
-80.281
-82.576
-83.727
-83.584
-82.089
-79.435
-75.671
-70.994
-66.131
-61.714
-58.076
-55.459
-53.637
-52.029
-50.503
-48.718
-45.568
-39.936
-30.741
-16.867
2.09
26.138
55.972
90.333
125.303
157.129
181.325
198.216
214.228
231.807
250.203
259.008
236.926
170.307
52.627
-109.891
-292.849
-471.943
-623.836
-728.221
-777.93
-772.878
-717.573
-625.272
-513.082
-396.422
-292.143
-212.681
-160.677
-134.159
-125.587
-123.571
-119.438
-110.303
-96.37
-80.407
-68.261
-60.794
-56.689
-55.654
-53.655
-48.84
-41.7
-31.728
-20.598
-10.32
-1.756
4.324
7.846
9.264
8.938
7.179
4.394
1.112
-2.084
-4.779
-6.721
-7.824
-8.14
-7.696
-6.551
-4.804
-2.552
0.115
3.131
6.437
9.976
13.673
17.434
21.176
24.822
28.3
31.55
34.527
37.207
39.599
41.745
43.682
45.43
47.007
48.408
49.652
50.769
51.786
52.732
53.633
54.508
55.386
56.299
57.27
58.307
59.404
60.536
61.691
62.872
64.091
65.377
66.745
68.204
69.765
71.442
73.246
75.189
77.273
79.492
81.847
84.342
86.989
89.806
92.805
95.987
99.347
102.876
106.569
110.425
114.443
118.614
122.93
127.382
131.964
136.672
141.496
146.421
151.421
156.475
161.561
166.665
171.78
176.891
181.985
187.041
192.04
196.968
201.819
206.589
211.27
215.865
220.378
224.829
229.253
233.671
238.094
242.522
246.941
251.34
255.709
260.031
264.29
268.456
272.49
276.354
280.009
283.404
286.479
289.155
291.334
292.939
293.913
294.207
293.793
292.65
290.754
288.104
284.705
280.57
275.72
270.174
263.95
257.083
249.615
241.602
233.118
224.228
214.987
205.451
195.67
185.686
175.544
165.277
154.911
144.483
134.034
123.609
113.262
103.043
93.009
83.22
73.729
64.58
55.815
47.464
39.555
32.116
25.172
18.748
12.861
7.517
2.709
-1.569
-5.343
-8.644
-11.521
-14.043
-16.274
-18.266
-20.061
-21.691
-23.184
-24.57
-25.875
-27.115
-28.303
-29.447
-30.551
-31.624
-32.666
-33.664
-34.599
-35.433
-36.136
-36.692
-37.09
-37.327
-37.405
-37.324
-37.091
-36.723
-36.236
-35.646
-34.967
-34.208
-33.384
-32.511
-31.613
-30.714
-29.837
-28.997
-28.205
-27.473
-26.807
-26.214
-25.695
-25.247
-24.867
-24.554
-24.308
-24.129
-24.017
-23.97
-23.984
-24.057
-24.185
-24.366
-24.598
-24.877
-25.199
-25.563
-25.965
-26.405
-26.88
-27.388
-27.923
-28.484
-29.067
-29.668
-30.283
-30.908
-31.54
-32.176
-32.813
-33.447
-34.078
-34.702
-35.319
-35.925
-36.521
-37.104
-37.674
-38.23
-38.77
-39.294
-39.802
-40.293
-40.767
-41.224
-41.664
-42.086
-42.492
-42.882
-43.255
-43.614
-43.958
-44.288
-44.605
-44.911
-45.207
-45.493
-45.772
-46.044
-46.312
-46.575
-46.836
-47.096
-47.355
-47.615
-47.878
-48.142
-48.41
-48.682
-48.959
-49.24
-49.527
-49.819
-50.118
-50.421
-50.73
-51.045
-51.364
-51.687
-52.014
-52.343
-52.673
-53.004
-53.334
-53.66
-53.982
-54.298
-54.606
-54.903
-55.187
-55.456
-55.708
-55.94
-56.15
-56.337
-56.496
-56.627
-56.727
-56.795
-56.827
-56.822
-56.779
-56.696
-56.572
-56.406
-56.197
-55.945
-55.649
-55.309
-54.925
-54.498
-54.029
-53.519
-52.97
-52.383
-51.761
-51.107
-50.423
-49.713
-48.981
-48.229
-47.463
-46.686
-45.903
-45.118
-44.335
-43.559
-42.795
-42.047
-41.321
-40.62
-39.949
-39.313
-38.717
-38.163
-37.656
-37.201
-36.799
-36.455
-36.171
-35.949
-35.793
-35.702
-35.68
-35.726
-35.842
-36.026
-36.279
-36.6
-36.987
-37.439
-37.953
-38.528
-39.162
-39.852
-40.595
-41.389
-42.232
-43.122
-44.056
-45.03
-46.042
-47.088
-48.165
-49.27
-50.398
-51.546
-52.711
-53.888
-55.074
-56.266
-57.46
-58.653
-59.839
-61.016
-62.181
-63.331
-64.461
-65.567
-66.645
-67.691
-68.702
-69.677
-70.608
-71.49
-72.319
-73.086
-73.785
-74.407
-74.939
-75.368
-75.68
-75.86
-75.899
-75.79
-75.523
-75.095
-74.501
-73.739
-72.815
-71.732
-70.494
-69.119
-67.626
-66.039
-64.408
-62.775
-61.194
-59.738
-58.47
-57.449
-56.725
-56.319
-56.255
-56.57
-57.297
-58.479
-60.153
-62.292
-64.872
-67.889
-71.225
-74.704
-78.045
-80.806
-82.597
-83.142
-82.242
-79.785
-75.88
-70.784
-64.964
-59.151
-54.033
-50.241
-48.146
-47.799
-48.934
-50.916
-52.813
-53.47
-51.604
-45.575
-33.98
-15.905
9.493
41.489
77.197
113.729
147.52
176.271
203.335
231.12
258.245
279.978
280.932
244.952
162.798
32.87
-126.725
-308.012
-513.105
-687.994
-775.959
-804.907
-811.705
-778.536
-695.735
-586.204
-464.789
-344.572
-245.776
-175.24
-134.472
-117.635
-107.216
-94.55
-77.516
-57.596
-43.448
-38.496
-40.295
-45.384
-48.494
-47.132
-42.062
-34.333
-25.181
-15.523
-5.966
2.558
8.998
12.849
14.215
13.482
11.182
7.814
3.813
-0.289
-3.877
-6.563
-8.198
-8.767
-8.382
-7.145
-5.112
-2.383
0.901
4.616
8.644
12.881
17.257
21.684
26.058
30.28
34.251
37.887
41.141
43.993
46.434
48.478
50.145
51.461
52.47
53.219
53.757
54.134
54.394
54.577
54.727
54.886
55.096
55.395
55.807
56.347
57.026
57.85
58.823
59.947
61.22
62.636
64.193
65.889
67.724
69.699
71.81
74.057
76.436
78.946
81.587
84.36
87.264
90.299
93.465
96.763
100.192
103.753
107.441
111.256
115.194
119.255
123.44
127.747
132.169
136.699
141.328
146.044
150.834
155.683
160.565
165.462
170.355
175.23
180.078
184.886
189.636
194.31
198.89
203.363
207.726
211.974
216.105
220.121
224.033
227.863
231.64
235.383
239.099
242.781
246.418
250.002
253.523
256.97
260.322
263.548
266.612
269.479
272.11
274.458
276.458
278.032
279.1
279.601
279.495
278.755
277.359
275.283
272.512
269.042
264.883
260.055
254.572
248.447
241.705
234.387
226.552
218.278
209.632
200.665
191.424
181.946
172.279
162.479
152.59
142.649
132.692
122.761
112.913
103.217
93.724
84.472
75.487
66.783
58.398
50.372
42.737
35.523
28.745
22.407
16.525
11.111
6.163
1.666
-2.413
-6.127
-9.509
-12.582
-15.372
-17.897
-20.198
-22.312
-24.265
-26.076
-27.76
-29.325
-30.789
-32.167
-33.458
-34.654
-35.738
-36.68
-37.468
-38.097
-38.56
-38.854
-38.972
-38.907
-38.666
-38.261
-37.703
-37.005
-36.176
-35.225
-34.172
-33.039
-31.849
-30.631
-29.404
-28.183
-26.987
-25.827
-24.717
-23.667
-22.683
-21.765
-20.916
-20.14
-19.44
-18.819
-18.277
-17.812
-17.423
-17.108
-16.863
-16.689
-16.581
-16.537
-16.555
-16.633
-16.768
-16.96
-17.205
-17.5
-17.841
-18.223
-18.642
-19.095
-19.575
-20.079
-20.601
-21.138
-21.686
-22.24
-22.797
-23.353
-23.906
-24.453
-24.991
-25.518
-26.031
-26.53
-27.012
-27.477
-27.923
-28.35
-28.758
-29.145
-29.513
-29.861
-30.189
-30.497
-30.787
-31.058
-31.312
-31.548
-31.769
-31.975
-32.167
-32.345
-32.512
-32.667
-32.812
-32.948
-33.074
-33.192
-33.302
-33.403
-33.496
-33.581
-33.657
-33.724
-33.781
-33.827
-33.862
-33.883
-33.891
-33.883
-33.857
-33.814
-33.749
-33.663
-33.554
-33.419
-33.257
-33.066
-32.846
-32.594
-32.31
-31.992
-31.64
-31.253
-30.83
-30.371
-29.877
-29.348
-28.784
-28.187
-27.558
-26.899
-26.211
-25.496
-24.758
-23.998
-23.22
-22.428
-21.624
-20.813
-19.999
-19.186
-18.378
-17.58
-16.796
-16.03
-15.288
-14.574
-13.892
-13.247
-12.644
-12.086
-11.578
-11.125
-10.729
-10.394
-10.123
-9.918
-9.782
-9.717
-9.724
-9.804
-9.958
-10.187
-10.49
-10.867
-11.317
-11.84
-12.433
-13.095
-13.824
-14.618
-15.474
-16.389
-17.362
-18.39
-19.47
-20.601
-21.78
-23.002
-24.266
-25.568
-26.904
-28.273
-29.669
-31.088
-32.525
-33.979
-35.444
-36.918
-38.395
-39.873
-41.346
-42.812
-44.27
-45.715
-47.142
-48.544
-49.918
-51.257
-52.56
-53.824
-55.042
-56.209
-57.32
-58.368
-59.35
-60.256
-61.072
-61.783
-62.371
-62.825
-63.136
-63.297
-63.304
-63.153
-62.839
-62.363
-61.729
-60.94
-60.005
-58.939
-57.757
-56.492
-55.186
-53.893
-52.684
-51.624
-50.772
-50.175
-49.853
-49.834
-50.155
-50.851
-51.97
-53.551
-55.57
-58.012
-60.888
-64.094
-67.472
-70.748
-73.469
-75.239
-75.793
-74.935
-72.577
-68.853
-64.002
-58.507
-53.188
-48.791
-45.981
-45.135
-46.208
-48.829
-52.372
-55.854
-57.848
-56.807
-51.096
-39.356
-20.815
4.895
37.905
76.122
115.107
150.834
178.501
198.046
215.292
230.541
241.642
240.002
206.407
131.961
15.339
-139.779
-312.886
-485.305
-640.922
-756.652
-819.794
-825.12
-770.274
-669.586
-544.837
-414.409
-300.059
-215.68
-160.743
-132.14
-119.43
-108.541
-95.11
-78.942
-63.23
-54.557
-54.014
-58.315
-63.411
-65.153
-62.147
-55.304
-45.88
-35.187
-24.176
-13.907
-5.63
-0.006
2.804
3.061
1.364
-1.762
-5.855
-10.291
-14.413
-17.789
-20.17
-21.506
-21.896
-21.403
-20.077
-18.008
-15.312
-12.101
-8.484
-4.551
-0.375
3.951
8.325
12.641
16.794
20.696
24.275
27.485
30.307
32.731
34.769
36.438
37.764
38.787
39.553
40.107
40.496
40.763
40.949
41.097
41.252
41.45
41.724
42.097
42.582
43.19
43.926
44.795
45.798
46.934
48.199
49.593
51.118
52.773
54.562
56.486
58.543
60.735
63.062
65.525
68.124
70.863
73.742
76.763
79.927
83.235
86.687
90.282
94.02
97.898
101.911
106.056
110.328
114.727
119.251
123.895
128.651
133.509
138.457
143.483
148.571
153.7
158.847
163.987
169.101
174.173
179.187
184.125
188.967
193.686
198.259
202.67
206.912
210.974
214.852
218.547
222.068
225.437
228.682
231.82
234.852
237.772
240.572
243.248
245.8
248.226
250.52
252.665
254.644
256.433
258.006
259.316
260.296
260.862
260.93
260.438
259.348
257.628
255.248
252.177
248.389
243.857
238.571
232.516
225.673
218.032
209.609
200.446
190.627
180.252
169.422
158.221
146.721
134.997
123.134
111.219
99.331
87.558
75.985
64.716
53.879
43.585
33.91
24.905
16.582
8.935
1.967
-4.325
-9.947
-14.913
-19.253
-22.995
-26.166
-28.804
-30.962
-32.719
-34.184
-35.447
-36.572
-37.609
-38.582
-39.514
-40.428
-41.338
-42.248
-43.158
-44.065
-44.967
-45.871
-46.771
-47.65
-48.475
-49.197
-49.781
-50.209
-50.469
-50.559
-50.48
-50.234
-49.831
-49.295
-48.645
-47.898
-47.069
-46.167
-45.208
-44.213
-43.206
-42.214
-41.259
-40.355
-39.517
-38.752
-38.069
-37.472
-36.962
-36.533
-36.183
-35.908
-35.708
-35.583
-35.529
-35.544
-35.623
-35.762
-35.957
-36.204
-36.5
-36.84
-37.22
-37.637
-38.089
-38.572
-39.085
-39.623
-40.182
-40.758
-41.347
-41.946
-42.55
-43.155
-43.759
-44.357
-44.947
-45.526
-46.092
-46.643
-47.176
-47.69
-48.184
-48.658
-49.109
-49.537
-49.943
-50.326
-50.686
-51.023
-51.336
-51.628
-51.897
-52.144
-52.37
-52.576
-52.762
-52.929
-53.077
-53.209
-53.324
-53.424
-53.509
-53.581
-53.641
-53.689
-53.727
-53.755
-53.775
-53.786
-53.79
-53.787
-53.779
-53.765
-53.747
-53.725
-53.698
-53.667
-53.632
-53.592
-53.547
-53.496
-53.438
-53.372
-53.296
-53.211
-53.115
-53.009
-52.891
-52.761
-52.618
-52.463
-52.295
-52.112
-51.913
-51.695
-51.456
-51.193
-50.906
-50.594
-50.254
-49.885
-49.487
-49.061
-48.605
-48.119
-47.599
-47.04
-46.439
-45.798
-45.121
-44.414
-43.685
-42.937
-42.178
-41.418
-40.663
-39.917
-39.175
-38.424
-37.658
-36.878
-36.086
-35.295
-34.508
-33.72
-32.926
-32.118
-31.289
-30.433
-29.537
-28.577
-27.544
-26.441
-25.287
-24.121
-22.97
-21.847
-20.765
-19.725
-18.736
-17.819
-16.988
-16.254
-15.635
-15.145
-14.813
-14.682
-14.776
-15.095
-15.624
-16.32
-17.154
-18.111
-19.177
-20.34
-21.588
-22.901
-24.27
-25.692
-27.157
-28.65
-30.147
-31.607
-33.007
-34.341
-35.614
-36.85
-38.065
-39.263
-40.454
-41.643
-42.836
-44.039
-45.248
-46.454
-47.651
-48.837
-50.014
-51.192
-52.372
-53.551
-54.723
-55.876
-56.995
-58.072
-59.095
-60.054
-60.937
-61.731
-62.416
-62.978
-63.402
-63.678
-63.803
-63.772
-63.582
-63.228
-62.704
-62.003
-61.128
-60.089
-58.895
-57.556
-56.096
-54.548
-52.977
-51.468
-50.096
-48.924
-47.991
-47.311
-46.907
-46.832
-47.137
-47.89
-49.136
-50.833
-52.961
-55.545
-58.501
-61.688
-64.841
-67.46
-69.106
-69.635
-68.939
-66.986
-63.986
-60.025
-55.403
-50.985
-47.526
-45.429
-44.92
-45.734
-47.21
-49.077
-50.699
-50.643
-47.622
-40.139
-26.806
-7.306
18.547
50.048
83.981
116.772
144.816
166.762
186.941
208.36
230.33
246.83
240.84
196.822
106.765
-31.404
-202.038
-380.052
-542.212
-662.448
-725.992
-735.317
-695.875
-620.787
-529.021
-430.391
-336.256
-259.951
-202.93
-165.625
-144.879
-128.6
-111.646
-93.339
-74.453
-61.076
-55.708
-56.364
-59.933
-61.95
-60.197
-54.955
-47.08
-37.725
-27.567
-17.047
-7.146
1.044
6.911
10.32
11.556
11.115
9.395
6.744
3.657
0.697
-1.752
-3.476
-4.405
-4.608
-4.134
-3.007
-1.296
0.906
3.518
6.453
9.64
13.027
16.542
20.1
23.629
27.047
30.284
33.283
35.991
38.377
40.435
42.17
43.596
44.738
45.622
46.284
46.77
47.119
47.373
47.568
47.737
47.914
48.135
48.428
48.823
49.339
49.989
50.784
51.729
52.829
54.084
55.493
57.053
58.76
60.613
62.609
64.749
67.033
69.458
72.024
74.729
77.571
80.55
83.665
86.916
90.301
93.818
97.465
101.243
105.152
109.195
113.368
117.668
122.087
126.616
131.243
135.956
140.736
145.56
150.409
155.262
160.106
164.931
169.725
174.472
179.154
183.75
188.245
192.635
196.917
201.088
205.156
209.129
213.031
216.9
220.761
224.629
228.51
232.392
236.264
240.12
243.947
247.733
251.458
255.084
258.573
261.891
264.984
267.796
270.25
272.243
273.69
274.53
274.709
274.202
272.99
271.046
268.363
264.936
260.767
255.875
250.278
243.986
237.027
229.44
221.279
212.64
203.607
194.247
184.625
174.787
164.776
154.644
144.44
134.201
123.975
113.807
103.745
93.863
84.23
74.906
65.943
57.36
49.167
41.388
34.042
27.151
20.735
14.803
9.356
4.403
-0.058
-4.042
-7.569
-10.691
-13.471
-15.964
-18.223
-20.284
-22.17
-23.909
-25.527
-27.044
-28.477
-29.836
-31.127
-32.359
-33.542
-34.677
-35.757
-36.761
-37.653
-38.41
-39.011
-39.441
-39.7
-39.783
-39.691
-39.432
-39.02
-38.468
-37.795
-37.013
-36.132
-35.168
-34.138
-33.065
-31.975
-30.89
-29.827
-28.801
-27.824
-26.904
-26.05
-25.264
-24.546
-23.894
-23.309
-22.789
-22.337
-21.952
-21.634
-21.379
-21.184
-21.049
-20.97
-20.947
-20.976
-21.056
-21.185
-21.36
-21.582
-21.846
-22.152
-22.495
-22.871
-23.278
-23.711
-24.166
-24.639
-25.126
-25.624
-26.13
-26.639
-27.151
-27.662
-28.169
-28.672
-29.168
-29.657
-30.137
-30.607
-31.066
-31.514
-31.95
-32.374
-32.785
-33.182
-33.565
-33.933
-34.285
-34.622
-34.944
-35.249
-35.539
-35.814
-36.073
-36.317
-36.546
-36.762
-36.964
-37.153
-37.329
-37.495
-37.649
-37.794
-37.928
-38.054
-38.17
-38.278
-38.377
-38.468
-38.55
-38.624
-38.688
-38.744
-38.791
-38.829
-38.859
-38.881
-38.895
-38.901
-38.902
-38.896
-38.885
-38.869
-38.849
-38.826
-38.801
-38.775
-38.748
-38.721
-38.696
-38.673
-38.653
-38.636
-38.623
-38.615
-38.611
-38.613
-38.621
-38.635
-38.655
-38.683
-38.718
-38.76
-38.81
-38.868
-38.933
-39.005
-39.082
-39.165
-39.251
-39.339
-39.428
-39.517
-39.602
-39.683
-39.757
-39.821
-39.872
-39.909
-39.928
-39.927
-39.903
-39.853
-39.774
-39.665
-39.523
-39.347
-39.133
-38.881
-38.589
-38.255
-37.879
-37.458
-36.994
-36.484
-35.93
-35.331
-34.688
-34.003
-33.278
-32.513
-31.713
-30.878
-30.014
-29.122
-28.208
-27.275
-26.327
-25.371
-24.41
-23.451
-22.498
-21.557
-20.635
-19.736
-18.867
-18.032
-17.238
-16.488
-15.79
-15.147
-14.564
-14.046
-13.596
-13.219
-12.919
-12.697
-12.557
-12.501
-12.531
-12.646
-12.849
-13.14
-13.517
-13.98
-14.529
-15.161
-15.875
-16.669
-17.539
-18.484
-19.499
-20.583
-21.731
-22.94
-24.207
-25.526
-26.896
-28.311
-29.766
-31.257
-32.777
-34.32
-35.881
-37.455
-39.035
-40.616
-42.192
-43.758
-45.312
-46.847
-48.36
-49.841
-51.282
-52.678
-54.021
-55.31
-56.541
-57.71
-58.812
-59.843
-60.798
-61.67
-62.45
-63.117
-63.652
-64.037
-64.259
-64.313
-64.194
-63.9
-63.425
-62.765
-61.918
-60.883
-59.662
-58.263
-56.697
-54.989
-53.179
-51.33
-49.517
-47.816
-46.297
-45.009
-43.984
-43.261
-42.88
-42.894
-43.35
-44.302
-45.764
-47.738
-50.243
-53.185
-56.387
-59.595
-62.424
-64.509
-65.597
-65.489
-64.018
-61.32
-57.676
-53.396
-49.079
-45.218
-42.127
-40.176
-39.528
-39.772
-40.307
-40.587
-39.584
-36.379
-30.23
-19.768
-3.844
17.779
45.424
78.047
112.057
144.412
171.996
193.838
214.619
236.644
258.082
272.035
261.372
211.78
117.644
-20.75
-187.843
-360.807
-520.156
-643.721
-716.876
-739.374
-712.713
-645.549
-555.105
-452.256
-350.763
-267.022
-204.743
-164.719
-142.482
-124.331
-104.263
-81.662
-58.582
-42.542
-36.265
-37.55
-42.849
-46.998
-47.529
-44.673
-39.004
-31.478
-22.854
-13.615
-4.822
2.245
6.975
9.274
9.373
7.768
4.893
1.127
-2.964
-6.719
-9.724
-11.771
-12.82
-12.982
-12.333
-10.913
-8.809
-6.145
-3.034
0.415
4.109
7.988
11.971
15.959
19.853
23.552
26.967
30.048
32.767
35.113
37.093
38.722
40.021
41.022
41.77
42.308
42.68
42.927
43.086
43.198
43.307
43.456
43.684
44.018
44.474
45.064
45.797
46.676
47.707
48.886
50.21
51.676
53.283
55.031
56.922
58.955
61.127
63.436
65.881
68.462
71.18
74.036
77.028
80.158
83.426
86.834
90.382
94.068
97.89
101.848
105.939
110.167
114.528
119.015
123.622
128.338
133.153
138.053
143.021
148.036
153.077
158.128
163.175
168.209
173.215
178.177
183.076
187.892
192.612
197.23
201.74
206.139
210.427
214.614
218.719
222.771
226.786
230.772
234.724
238.63
242.48
246.265
249.974
253.594
257.097
260.451
263.624
266.579
269.269
271.641
273.616
275.112
276.062
276.411
276.121
275.166
273.519
271.16
268.076
264.254
259.703
254.438
248.474
241.838
234.564
226.694
218.304
209.473
200.274
190.783
181.062
171.166
161.161
151.107
141.069
131.115
121.3
111.67
102.277
93.16
84.36
75.922
67.862
60.188
52.908
46.02
39.525
33.431
27.725
22.392
17.409
12.737
8.351
4.234
0.362
-3.281
-6.719
-9.986
-13.1
-16.068
-18.901
-21.602
-24.174
-26.629
-28.963
-31.165
-33.219
-35.101
-36.796
-38.3
-39.611
-40.725
-41.641
-42.351
-42.859
-43.174
-43.306
-43.267
-43.067
-42.714
-42.224
-41.62
-40.923
-40.161
-39.355
-38.519
-37.669
-36.818
-35.978
-35.16
-34.373
-33.618
-32.901
-32.226
-31.597
-31.02
-30.497
-30.027
-29.61
-29.245
-28.93
-28.665
-28.449
-28.281
-28.159
-28.082
-28.049
-28.061
-28.117
-28.212
-28.346
-28.516
-28.717
-28.947
-29.202
-29.479
-29.775
-30.086
-30.41
-30.743
-31.084
-31.431
-31.78
-32.13
-32.479
-32.825
-33.168
-33.505
-33.835
-34.157
-34.471
-34.776
-35.071
-35.357
-35.633
-35.898
-36.154
-36.4
-36.636
-36.864
-37.084
-37.296
-37.501
-37.701
-37.897
-38.089
-38.278
-38.467
-38.654
-38.843
-39.031
-39.222
-39.413
-39.607
-39.803
-40
-40.2
-40.402
-40.606
-40.811
-41.019
-41.227
-41.437
-41.648
-41.859
-42.07
-42.281
-42.49
-42.698
-42.903
-43.105
-43.303
-43.496
-43.684
-43.864
-44.036
-44.2
-44.354
-44.497
-44.628
-44.748
-44.855
-44.95
-45.032
-45.102
-45.16
-45.206
-45.24
-45.264
-45.278
-45.283
-45.279
-45.268
-45.25
-45.227
-45.2
-45.169
-45.137
-45.104
-45.071
-45.041
-45.015
-44.993
-44.979
-44.973
-44.977
-44.993
-45.023
-45.068
-45.13
-45.211
-45.311
-45.432
-45.576
-45.741
-45.929
-46.14
-46.375
-46.631
-46.91
-47.211
-47.532
-47.873
-48.233
-48.61
-49.002
-49.409
-49.827
-50.255
-50.691
-51.133
-51.577
-52.021
-52.463
-52.899
-53.327
-53.742
-54.142
-54.523
-54.882
-55.215
-55.518
-55.788
-56.022
-56.216
-56.369
-56.476
-56.537
-56.548
-56.508
-56.415
-56.268
-56.066
-55.809
-55.495
-55.124
-54.698
-54.216
-53.679
-53.089
-52.446
-51.753
-51.012
-50.226
-49.396
-48.526
-47.62
-46.682
-45.716
-44.725
-43.716
-42.693
-41.661
-40.625
-39.592
-38.565
-37.551
-36.555
-35.581
-34.636
-33.724
-32.85
-32.018
-31.234
-30.5
-29.822
-29.203
-28.647
-28.155
-27.732
-27.38
-27.1
-26.895
-26.765
-26.713
-26.739
-26.843
-27.025
-27.285
-27.622
-28.034
-28.52
-29.077
-29.705
-30.4
-31.16
-31.982
-32.865
-33.806
-34.802
-35.85
-36.947
-38.09
-39.274
-40.495
-41.746
-43.024
-44.323
-45.639
-46.966
-48.299
-49.633
-50.965
-52.292
-53.609
-54.909
-56.183
-57.424
-58.627
-59.788
-60.907
-61.983
-63.011
-63.988
-64.912
-65.779
-66.584
-67.312
-67.94
-68.444
-68.807
-69.018
-69.075
-68.97
-68.694
-68.229
-67.564
-66.692
-65.613
-64.331
-62.847
-61.17
-59.328
-57.373
-55.383
-53.453
-51.661
-50.068
-48.717
-47.647
-46.922
-46.634
-46.869
-47.693
-49.129
-51.139
-53.714
-56.875
-60.552
-64.549
-68.495
-71.949
-74.655
-76.591
-77.795
-78.169
-77.57
-75.937
-73.582
-71.057
-68.636
-66.186
-63.275
-59.643
-55.367
-50.654
-45.242
-38.322
-29.149
-17.412
-3.133
13.797
33.893
58.306
86.404
114.852
140.281
159.299
172.163
184.562
199.395
215.335
225.428
213.339
163.658
70.727
-59.003
-223.079
-420.666
-598.381
-693.343
-728.709
-743.275
-717.247
-642.354
-543.139
-432.015
-322.178
-233.23
-170.783
-136.839
-125.766
-120.173
-111.598
-98.075
-80.856
-67.937
-62.621
-62.39
-63.832
-62.691
-57.166
-48.136
-36.917
-24.853
-12.839
-1.779
7.227
13.604
17.209
18.277
17.373
14.987
11.538
7.601
3.804
0.577
-1.813
-3.276
-3.874
-3.64
-2.6
-0.823
1.591
4.545
7.937
11.68
15.705
19.925
24.236
28.532
32.705
36.659
40.311
43.609
46.522
49.035
51.154
52.896
54.283
55.354
56.154
56.728
57.123
57.381
57.543
57.654
57.759
57.899
58.112
58.425
58.855
59.415
60.114
60.957
61.948
63.086
64.367
65.79
67.353
69.059
70.908
72.898
75.029
77.298
79.704
82.249
84.933
87.756
90.718
93.819
97.06
100.44
103.961
107.619
111.413
115.339
119.398
123.59
127.914
132.364
136.931
141.608
146.382
151.243
156.173
161.151
166.155
171.168
176.179
181.176
186.147
191.076
195.942
200.728
205.422
210.02
214.517
218.911
223.204
227.405
231.537
235.628
239.697
243.75
247.782
251.781
255.742
259.656
263.515
267.301
270.979
274.514
277.868
281.002
283.863
286.387
288.492
290.098
291.145
291.589
291.399
290.551
289.015
286.77
283.803
280.114
275.723
270.652
264.923
258.572
251.65
244.223
236.373
228.175
219.678
210.93
201.978
192.867
183.658
174.406
165.16
155.973
146.885
137.933
129.161
120.59
112.232
104.098
96.187
88.512
81.11
74.005
67.216
60.76
54.635
48.835
43.358
38.177
33.272
28.629
24.23
20.072
16.158
12.485
9.049
5.84
2.829
-0.002
-2.667
-5.183
-7.553
-9.778
-11.853
-13.757
-15.473
-16.992
-18.308
-19.423
-20.348
-21.087
-21.646
-22.034
-22.251
-22.301
-22.193
-21.928
-21.517
-20.975
-20.317
-19.57
-18.757
-17.897
-17.008
-16.1
-15.185
-14.271
-13.368
-12.48
-11.611
-10.769
-9.959
-9.189
-8.464
-7.787
-7.161
-6.585
-6.061
-5.587
-5.165
-4.794
-4.475
-4.209
-3.997
-3.84
-3.74
-3.696
-3.708
-3.776
-3.897
-4.069
-4.292
-4.561
-4.876
-5.233
-5.631
-6.068
-6.542
-7.05
-7.591
-8.162
-8.761
-9.386
-10.034
-10.704
-11.393
-12.099
-12.82
-13.553
-14.296
-15.048
-15.807
-16.57
-17.336
-18.103
-18.869
-19.632
-20.39
-21.142
-21.887
-22.623
-23.35
-24.066
-24.771
-25.464
-26.145
-26.813
-27.468
-28.108
-28.734
-29.344
-29.938
-30.516
-31.078
-31.623
-32.151
-32.664
-33.16
-33.642
-34.108
-34.56
-34.997
-35.422
-35.833
-36.232
-36.619
-36.995
-37.36
-37.717
-38.064
-38.403
-38.735
-39.059
-39.377
-39.688
-39.992
-40.29
-40.581
-40.867
-41.147
-41.421
-41.691
-41.957
-42.219
-42.477
-42.731
-42.981
-43.227
-43.468
-43.702
-43.929
-44.147
-44.356
-44.555
-44.743
-44.918
-45.082
-45.234
-45.373
-45.5
-45.612
-45.708
-45.786
-45.844
-45.879
-45.889
-45.872
-45.827
-45.752
-45.647
-45.513
-45.35
-45.155
-44.927
-44.662
-44.356
-44.008
-43.621
-43.197
-42.744
-42.271
-41.789
-41.309
-40.84
-40.386
-39.948
-39.519
-39.092
-38.66
-38.218
-37.772
-37.322
-36.869
-36.41
-35.94
-35.447
-34.915
-34.323
-33.646
-32.868
-31.981
-30.993
-29.923
-28.798
-27.653
-26.514
-25.401
-24.329
-23.313
-22.368
-21.512
-20.767
-20.163
-19.733
-19.521
-19.559
-19.869
-20.453
-21.295
-22.365
-23.625
-25.038
-26.578
-28.221
-29.951
-31.752
-33.61
-35.508
-37.427
-39.339
-41.207
-43
-44.696
-46.284
-47.768
-49.162
-50.491
-51.777
-53.038
-54.287
-55.532
-56.772
-58.01
-59.242
-60.466
-61.684
-62.904
-64.129
-65.363
-66.602
-67.842
-69.072
-70.275
-71.431
-72.522
-73.53
-74.442
-75.247
-75.929
-76.475
-76.872
-77.101
-77.155
-77.028
-76.715
-76.21
-75.507
-74.594
-73.474
-72.155
-70.653
-68.991
-67.193
-65.287
-63.324
-61.364
-59.478
-57.751
-56.244
-55.008
-54.079
-53.466
-53.207
-53.362
-53.983
-55.111
-56.732
-58.753
-61.112
-63.803
-66.714
-69.652
-72.256
-73.96
-74.432
-73.628
-71.554
-68.218
-63.586
-57.658
-50.927
-44.484
-39.181
-35.335
-32.837
-31.338
-30.799
-31.14
-31.519
-30.266
-25.329
-15.144
0.782
22.826
50.684
81.922
113.591
141.651
163.18
181.508
199.889
218.158
232.064
225.659
182.673
93.109
-45.206
-211.594
-396.925
-603.018
-769.312
-834.51
-833.365
-808.683
-744.847
-637.853
-512.364
-385.696
-272.959
-187.625
-132.875
-106.709
-97.954
-92.011
-83.176
-70.229
-56.695
-49.176
-48.379
-51.47
-54.927
-54.872
-50.367
-42.553
-32.565
-21.735
-11.165
-1.732
5.532
10.089
12.02
11.677
9.599
6.331
2.347
-1.792
-5.462
-8.265
-10.037
-10.758
-10.53
-9.443
-7.546
-4.935
-1.744
1.909
5.905
10.145
14.564
19.072
23.56
27.922
32.053
35.862
39.297
42.331
44.948
47.153
48.963
50.399
51.502
52.319
52.899
53.288
53.532
53.671
53.75
53.816
53.911
54.076
54.336
54.707
55.201
55.823
56.578
57.467
58.486
59.629
60.895
62.281
63.789
65.42
67.172
69.045
71.037
73.148
75.375
77.721
80.184
82.766
85.467
88.288
91.231
94.296
97.483
100.792
104.221
107.768
111.429
115.203
119.084
123.071
127.16
131.351
135.639
140.019
144.482
149.018
153.614
158.256
162.927
167.607
172.276
176.915
181.508
186.041
190.502
194.876
199.149
203.304
207.331
211.226
214.985
218.611
222.106
225.473
228.721
231.864
234.911
237.865
240.723
243.474
246.101
248.586
250.911
253.057
254.998
256.699
258.12
259.215
259.946
260.277
260.165
259.56
258.42
256.712
254.414
251.516
248.018
243.922
239.227
233.939
228.071
221.649
214.706
207.286
199.418
191.136
182.483
173.513
164.283
154.846
145.253
135.546
125.77
115.976
106.223
96.573
87.087
77.819
68.811
60.106
51.754
43.804
36.293
29.247
22.68
16.604
11.025
5.952
1.382
-2.701
-6.327
-9.535
-12.372
-14.881
-17.096
-19.056
-20.803
-22.381
-23.824
-25.159
-26.404
-27.574
-28.682
-29.742
-30.76
-31.735
-32.654
-33.5
-34.25
-34.887
-35.4
-35.778
-36.012
-36.096
-36.027
-35.81
-35.457
-34.979
-34.387
-33.691
-32.906
-32.047
-31.135
-30.193
-29.243
-28.305
-27.397
-26.531
-25.721
-24.976
-24.303
-23.706
-23.185
-22.739
-22.37
-22.079
-21.866
-21.73
-21.669
-21.681
-21.761
-21.909
-22.119
-22.391
-22.72
-23.105
-23.542
-24.03
-24.565
-25.146
-25.77
-26.431
-27.126
-27.851
-28.601
-29.371
-30.157
-30.953
-31.757
-32.563
-33.367
-34.167
-34.96
-35.741
-36.508
-37.26
-37.992
-38.704
-39.393
-40.058
-40.697
-41.309
-41.892
-42.446
-42.97
-43.464
-43.927
-44.36
-44.762
-45.135
-45.478
-45.793
-46.08
-46.342
-46.578
-46.791
-46.983
-47.156
-47.311
-47.45
-47.577
-47.692
-47.797
-47.895
-47.986
-48.073
-48.157
-48.239
-48.32
-48.401
-48.483
-48.568
-48.654
-48.743
-48.836
-48.93
-49.028
-49.127
-49.226
-49.326
-49.424
-49.519
-49.61
-49.694
-49.77
-49.835
-49.888
-49.926
-49.947
-49.947
-49.925
-49.878
-49.802
-49.697
-49.558
-49.385
-49.175
-48.926
-48.637
-48.308
-47.936
-47.521
-47.064
-46.563
-46.019
-45.434
-44.807
-44.141
-43.437
-42.698
-41.926
-41.126
-40.3
-39.451
-38.585
-37.704
-36.815
-35.92
-35.026
-34.137
-33.258
-32.396
-31.555
-30.742
-29.962
-29.221
-28.524
-27.877
-27.284
-26.751
-26.282
-25.881
-25.551
-25.297
-25.122
-25.028
-25.017
-25.091
-25.252
-25.501
-25.837
-26.26
-26.77
-27.366
-28.046
-28.808
-29.652
-30.575
-31.575
-32.649
-33.796
-35.012
-36.296
-37.641
-39.046
-40.506
-42.016
-43.574
-45.172
-46.804
-48.466
-50.152
-51.858
-53.577
-55.304
-57.032
-58.757
-60.473
-62.178
-63.866
-65.53
-67.162
-68.754
-70.302
-71.802
-73.251
-74.643
-75.971
-77.228
-78.407
-79.505
-80.51
-81.406
-82.177
-82.803
-83.269
-83.571
-83.704
-83.664
-83.45
-83.055
-82.478
-81.721
-80.788
-79.688
-78.437
-77.048
-75.555
-74.003
-72.45
-70.973
-69.639
-68.501
-67.601
-66.953
-66.577
-66.522
-66.827
-67.548
-68.736
-70.353
-72.371
-74.806
-77.553
-80.459
-83.285
-85.553
-86.849
-87.034
-85.994
-83.724
-80.453
-76.273
-71.458
-66.815
-63.032
-60.464
-59.307
-59.249
-59.658
-60.33
-60.779
-59.765
-56.056
-48.508
-36.104
-18.613
3.889
32.067
64.531
97.292
126.78
148.682
163.317
177.279
192.041
205.732
209.628
184.07
118.584
10.428
-137.109
-303.615
-469.048
-615.661
-722.074
-777.986
-782.173
-736.456
-652.165
-546.454
-431.804
-323.061
-235.798
-173.323
-136.292
-119.743
-109.179
-98.042
-85.101
-71.416
-63.612
-63.804
-68.804
-74.837
-77.774
-75.901
-70.028
-61.391
-51.23
-40.47
-30.195
-21.706
-15.704
-12.392
-11.554
-12.609
-15.065
-18.487
-22.26
-25.717
-28.422
-30.143
-30.841
-30.628
-29.578
-27.736
-25.196
-22.078
-18.499
-14.564
-10.364
-5.962
-1.442
3.09
7.529
11.771
15.726
19.339
22.58
25.435
27.904
29.998
31.737
33.151
34.285
35.181
35.882
36.433
36.874
37.25
37.606
37.988
38.436
38.976
39.627
40.399
41.302
42.34
43.518
44.834
46.286
47.872
49.592
51.448
53.441
55.571
57.837
60.235
62.764
65.425
68.217
71.142
74.201
77.393
80.721
84.185
87.787
91.525
95.398
99.402
103.533
107.788
112.163
116.658
121.267
125.983
130.798
135.702
140.682
145.726
150.816
155.931
161.051
166.16
171.239
176.275
181.255
186.165
190.992
195.718
200.335
204.837
209.225
213.5
217.669
221.735
225.71
229.61
233.446
237.224
240.941
244.588
248.152
251.612
254.95
258.142
261.155
263.947
266.469
268.663
270.474
271.851
272.736
273.069
272.799
271.884
270.299
268.029
265.068
261.422
257.1
252.121
246.519
240.339
233.639
226.486
218.948
211.087
202.97
194.67
186.249
177.767
169.272
160.799
152.383
144.054
135.836
127.752
119.812
112.022
104.379
96.873
89.498
82.254
75.139
68.152
61.294
54.569
47.989
41.569
35.325
29.27
23.419
17.784
12.381
7.227
2.34
-2.263
-6.566
-10.562
-14.243
-17.606
-20.651
-23.379
-25.797
-27.916
-29.747
-31.3
-32.587
-33.619
-34.41
-34.975
-35.328
-35.485
-35.463
-35.275
-34.938
-34.467
-33.876
-33.179
-32.391
-31.523
-30.589
-29.602
-28.574
-27.519
-26.447
-25.372
-24.302
-23.25
-22.223
-21.232
-20.282
-19.382
-18.535
-17.747
-17.022
-16.362
-15.77
-15.248
-14.796
-14.415
-14.105
-13.864
-13.691
-13.584
-13.541
-13.559
-13.636
-13.768
-13.951
-14.183
-14.459
-14.775
-15.128
-15.514
-15.928
-16.366
-16.824
-17.299
-17.786
-18.281
-18.78
-19.281
-19.779
-20.272
-20.758
-21.234
-21.699
-22.15
-22.586
-23.006
-23.41
-23.795
-24.163
-24.513
-24.845
-25.159
-25.455
-25.734
-25.998
-26.246
-26.479
-26.699
-26.907
-27.104
-27.29
-27.468
-27.638
-27.802
-27.962
-28.118
-28.272
-28.426
-28.58
-28.737
-28.898
-29.063
-29.233
-29.411
-29.595
-29.788
-29.99
-30.2
-30.42
-30.649
-30.888
-31.136
-31.392
-31.657
-31.929
-32.207
-32.492
-32.781
-33.073
-33.368
-33.664
-33.958
-34.251
-34.538
-34.82
-35.092
-35.354
-35.603
-35.836
-36.051
-36.246
-36.417
-36.563
-36.68
-36.766
-36.82
-36.837
-36.817
-36.757
-36.654
-36.509
-36.318
-36.081
-35.797
-35.466
-35.086
-34.659
-34.183
-33.659
-33.089
-32.472
-31.811
-31.106
-30.36
-29.576
-28.754
-27.9
-27.017
-26.107
-25.175
-24.226
-23.263
-22.291
-21.317
-20.343
-19.376
-18.422
-17.485
-16.572
-15.688
-14.838
-14.028
-13.263
-12.547
-11.886
-11.284
-10.744
-10.271
-9.867
-9.537
-9.284
-9.11
-9.017
-9.007
-9.082
-9.244
-9.492
-9.827
-10.249
-10.758
-11.353
-12.032
-12.795
-13.639
-14.562
-15.562
-16.638
-17.785
-19.002
-20.283
-21.627
-23.029
-24.485
-25.991
-27.541
-29.129
-30.75
-32.398
-34.067
-35.752
-37.446
-39.144
-40.841
-42.532
-44.211
-45.869
-47.497
-49.085
-50.625
-52.112
-53.541
-54.908
-56.208
-57.436
-58.588
-59.66
-60.644
-61.529
-62.291
-62.911
-63.377
-63.675
-63.806
-63.768
-63.554
-63.162
-62.582
-61.808
-60.846
-59.698
-58.366
-56.865
-55.216
-53.466
-51.698
-49.99
-48.41
-47.015
-45.831
-44.892
-44.251
-43.962
-44.088
-44.685
-45.755
-47.309
-49.386
-51.922
-54.784
-57.722
-60.31
-62.162
-63.011
-62.651
-60.974
-58.099
-54.249
-49.834
-45.556
-42.044
-39.843
-39.288
-40.354
-42.64
-45.499
-48.069
-49.138
-47.41
-41.528
-30.236
-12.683
11.391
42.02
77.716
114.712
149.174
176.75
195.911
210.987
224.671
236.829
242.83
226.745
173.824
76.656
-67.892
-245.144
-430.58
-601.324
-728.504
-794.222
-797.252
-740.22
-640.389
-521.929
-401.017
-296.141
-219.311
-168.812
-141.685
-128.581
-116.537
-101.675
-84.048
-66.885
-56.462
-53.977
-56.532
-60.216
-61.009
-57.542
-50.5
-40.973
-30.197
-18.973
-8.252
0.69
7.165
10.951
12.202
11.453
9.173
5.762
1.809
-2.016
-5.256
-7.63
-9.052
-9.603
-9.326
-8.251
-6.458
-4.051
-1.139
2.175
5.808
9.697
13.763
17.91
22.03
26.021
29.787
33.25
36.358
39.086
41.417
43.358
44.925
46.14
47.04
47.67
48.074
48.296
48.378
48.36
48.287
48.204
48.151
48.168
48.28
48.504
48.854
49.339
49.965
50.735
51.65
52.706
53.901
55.238
56.715
58.337
60.103
62.012
64.061
66.251
68.582
71.056
73.674
76.435
79.341
82.392
85.589
88.934
92.426
96.061
99.837
103.751
107.801
111.986
116.303
120.742
125.295
129.951
134.696
139.517
144.393
149.302
154.221
159.134
164.024
168.879
173.683
178.417
183.065
187.607
192.031
196.33
200.499
204.533
208.438
212.225
215.912
219.526
223.084
226.59
230.044
233.438
236.764
240.012
243.167
246.205
249.103
251.826
254.34
256.612
258.591
260.213
261.409
262.101
262.226
261.733
260.58
258.731
256.166
252.869
248.845
244.109
238.682
232.587
225.853
218.51
210.607
202.21
193.39
184.228
174.808
165.204
155.499
145.778
136.107
126.541
117.123
107.88
98.845
90.05
81.526
73.302
65.403
57.844
50.637
43.786
37.284
31.117
25.261
19.676
14.339
9.239
4.367
-0.274
-4.685
-8.871
-12.837
-16.587
-20.131
-23.483
-26.657
-29.666
-32.511
-35.186
-37.675
-39.954
-42.007
-43.826
-45.408
-46.755
-47.875
-48.773
-49.46
-49.949
-50.247
-50.359
-50.289
-50.04
-49.623
-49.054
-48.354
-47.549
-46.662
-45.713
-44.723
-43.707
-42.68
-41.652
-40.633
-39.627
-38.643
-37.689
-36.775
-35.908
-35.096
-34.343
-33.651
-33.024
-32.461
-31.962
-31.527
-31.154
-30.844
-30.596
-30.409
-30.285
-30.222
-30.219
-30.275
-30.386
-30.549
-30.762
-31.02
-31.32
-31.657
-32.027
-32.426
-32.85
-33.296
-33.76
-34.239
-34.727
-35.224
-35.724
-36.225
-36.724
-37.219
-37.707
-38.186
-38.653
-39.108
-39.548
-39.972
-40.38
-40.77
-41.142
-41.495
-41.829
-42.144
-42.44
-42.717
-42.976
-43.216
-43.439
-43.646
-43.837
-44.014
-44.178
-44.33
-44.471
-44.603
-44.727
-44.843
-44.953
-45.058
-45.159
-45.257
-45.353
-45.448
-45.543
-45.639
-45.737
-45.839
-45.944
-46.055
-46.171
-46.295
-46.425
-46.564
-46.711
-46.867
-47.033
-47.208
-47.394
-47.589
-47.794
-48.01
-48.234
-48.468
-48.71
-48.96
-49.217
-49.481
-49.75
-50.023
-50.3
-50.58
-50.861
-51.142
-51.422
-51.699
-51.972
-52.238
-52.496
-52.743
-52.977
-53.196
-53.397
-53.578
-53.736
-53.869
-53.974
-54.049
-54.092
-54.099
-54.068
-53.998
-53.886
-53.73
-53.528
-53.279
-52.982
-52.635
-52.237
-51.789
-51.289
-50.737
-50.133
-49.477
-48.77
-48.013
-47.206
-46.351
-45.45
-44.506
-43.521
-42.497
-41.439
-40.35
-39.234
-38.095
-36.938
-35.766
-34.586
-33.402
-32.218
-31.041
-29.876
-28.727
-27.601
-26.503
-25.437
-24.409
-23.424
-22.486
-21.6
-20.77
-20.001
-19.295
-18.656
-18.089
-17.595
-17.177
-16.837
-16.577
-16.398
-16.302
-16.288
-16.356
-16.505
-16.736
-17.047
-17.437
-17.903
-18.444
-19.058
-19.744
-20.498
-21.317
-22.2
-23.142
-24.14
-25.191
-26.291
-27.435
-28.617
-29.832
-31.075
-32.342
-33.626
-34.922
-36.223
-37.527
-38.827
-40.121
-41.401
-42.661
-43.891
-45.085
-46.238
-47.346
-48.408
-49.418
-50.369
-51.259
-52.084
-52.837
-53.509
-54.082
-54.534
-54.849
-55.012
-55.019
-54.864
-54.544
-54.052
-53.38
-52.525
-51.491
-50.285
-48.914
-47.388
-45.73
-43.979
-42.199
-40.475
-38.883
-37.494
-36.359
-35.513
-34.995
-34.862
-35.166
-35.963
-37.294
-39.152
-41.536
-44.469
-47.869
-51.576
-55.313
-58.645
-61.182
-62.651
-62.85
-61.656
-59.157
-55.546
-51.216
-46.864
-43.142
-40.618
-39.623
-40.128
-41.779
-44.004
-45.997
-46.539
-44.275
-37.781
-25.79
-7.478
17.577
49.602
86.82
125.066
160.229
187.625
207.677
226.726
246.934
267.629
278.244
257.005
189.984
70.771
-93.763
-278.54
-457.76
-607.429
-709.241
-757.211
-754.088
-706.551
-623.51
-519.248
-405.479
-296.278
-210.149
-152.579
-123.68
-116.751
-113.972
-106.649
-93.364
-76.152
-63.509
-58.741
-59.1
-60.994
-60.143
-54.905
-46.334
-35.716
-24.246
-12.704
-1.936
6.937
13.311
17.042
18.361
17.816
15.845
12.816
9.27
5.817
2.874
0.686
-0.673
-1.289
-1.216
-0.494
0.787
2.523
4.619
6.997
9.6
12.396
15.332
18.328
21.308
24.191
26.906
29.399
31.631
33.592
35.295
36.783
38.1
39.286
40.377
41.394
42.356
43.266
44.133
44.972
45.796
46.63
47.494
48.408
49.388
50.437
51.544
52.688
53.846
55.004
56.158
57.316
58.493
59.718
61.015
62.408
63.914
65.544
67.304
69.197
71.226
73.391
75.701
78.17
80.809
83.63
86.636
89.827
93.195
96.729
100.411
104.229
108.17
112.226
116.395
120.672
125.053
129.532
134.101
138.749
143.462
148.22
153
157.779
162.535
167.253
171.927
176.546
181.102
185.582
189.972
194.267
198.469
202.575
206.579
210.479
214.27
217.96
221.569
225.11
228.591
232.005
235.329
238.543
241.629
244.557
247.296
249.8
252.003
253.856
255.323
256.367
256.955
257.045
256.575
255.504
253.81
251.483
248.532
244.966
240.787
236.017
230.69
224.86
218.599
211.961
204.972
197.666
190.072
182.231
174.2
166.017
157.692
149.238
140.666
131.99
123.243
114.448
105.609
96.727
87.8
78.845
69.91
61.047
52.3
43.709
35.309
27.142
19.281
11.784
4.697
-1.944
-8.123
-13.824
-19.023
-23.699
-27.849
-31.484
-34.638
-37.361
-39.687
-41.649
-43.285
-44.634
-45.754
-46.696
-47.495
-48.178
-48.763
-49.266
-49.711
-50.117
-50.484
-50.812
-51.085
-51.282
-51.394
-51.416
-51.341
-51.167
-50.882
-50.482
-49.97
-49.359
-48.658
-47.878
-47.029
-46.119
-45.164
-44.184
-43.198
-42.23
-41.295
-40.406
-39.573
-38.807
-38.114
-37.501
-36.968
-36.514
-36.138
-35.837
-35.612
-35.462
-35.384
-35.373
-35.424
-35.531
-35.691
-35.898
-36.148
-36.436
-36.758
-37.109
-37.487
-37.889
-38.309
-38.745
-39.192
-39.644
-40.098
-40.549
-40.992
-41.423
-41.839
-42.235
-42.611
-42.962
-43.287
-43.584
-43.852
-44.089
-44.295
-44.47
-44.612
-44.722
-44.801
-44.848
-44.866
-44.855
-44.815
-44.75
-44.659
-44.545
-44.408
-44.251
-44.076
-43.883
-43.676
-43.457
-43.227
-42.989
-42.745
-42.497
-42.247
-41.999
-41.752
-41.51
-41.275
-41.047
-40.828
-40.619
-40.423
-40.239
-40.069
-39.914
-39.773
-39.648
-39.54
-39.447
-39.371
-39.31
-39.267
-39.239
-39.227
-39.23
-39.249
-39.282
-39.329
-39.39
-39.463
-39.547
-39.642
-39.746
-39.859
-39.978
-40.102
-40.231
-40.363
-40.496
-40.629
-40.76
-40.888
-41.011
-41.128
-41.237
-41.335
-41.423
-41.497
-41.556
-41.598
-41.622
-41.626
-41.609
-41.568
-41.502
-41.409
-41.287
-41.136
-40.954
-40.738
-40.489
-40.205
-39.886
-39.53
-39.138
-38.708
-38.242
-37.739
-37.2
-36.625
-36.015
-35.372
-34.696
-33.988
-33.252
-32.488
-31.7
-30.888
-30.057
-29.209
-28.347
-27.474
-26.594
-25.711
-24.827
-23.947
-23.076
-22.216
-21.371
-20.547
-19.746
-18.974
-18.234
-17.529
-16.864
-16.242
-15.667
-15.141
-14.668
-14.25
-13.889
-13.587
-13.345
-13.167
-13.051
-13
-13.014
-13.093
-13.237
-13.445
-13.716
-14.051
-14.446
-14.902
-15.417
-15.988
-16.615
-17.295
-18.027
-18.809
-19.639
-20.516
-21.436
-22.397
-23.397
-24.434
-25.503
-26.602
-27.727
-28.873
-30.039
-31.22
-32.414
-33.617
-34.824
-36.031
-37.236
-38.436
-39.627
-40.803
-41.957
-43.084
-44.18
-45.243
-46.27
-47.254
-48.189
-49.069
-49.885
-50.631
-51.297
-51.867
-52.325
-52.651
-52.834
-52.865
-52.742
-52.459
-52.01
-51.389
-50.595
-49.63
-48.502
-47.224
-45.814
-44.294
-42.701
-41.088
-39.52
-38.071
-36.807
-35.787
-35.051
-34.629
-34.55
-34.853
-35.577
-36.763
-38.434
-40.566
-43.136
-46.132
-49.448
-52.906
-56.211
-58.936
-60.685
-61.174
-60.206
-57.65
-53.6
-48.285
-42.17
-36.037
-30.682
-26.877
-25.111
-25.488
-27.734
-31.273
-35.115
-37.822
-37.821
-33.007
-21.596
-2.751
24.21
58.338
96.28
134.637
169.341
197.425
221.462
243.045
260.661
269.828
256.171
206.578
113.215
-24.638
-186.338
-365.796
-566.892
-730.362
-797.202
-802.029
-788.619
-741.466
-650.865
-538.922
-419.415
-303.133
-208.554
-142.605
-106.658
-94.537
-88.68
-80.388
-67.706
-52.159
-41.871
-39.586
-42.136
-45.887
-46.585
-42.615
-35.141
-25.463
-14.73
-3.85
6.168
14.13
19.4
21.894
21.966
20.243
17.221
13.334
9.181
5.419
2.487
0.607
-0.201
-0.065
0.929
2.726
5.232
8.321
11.868
15.755
19.884
24.183
28.564
32.916
37.133
41.106
44.743
47.987
50.811
53.202
55.169
56.731
57.91
58.748
59.291
59.588
59.69
59.642
59.488
59.274
59.047
58.855
58.738
58.727
58.84
59.088
59.478
60.015
60.701
61.534
62.506
63.616
64.862
66.245
67.765
69.424
71.22
73.15
75.214
77.409
79.737
82.197
84.786
87.503
90.348
93.318
96.415
99.637
102.979
106.441
110.017
113.703
117.498
121.396
125.389
129.473
133.641
137.89
142.216
146.616
151.079
155.597
160.158
164.747
169.352
173.954
178.529
183.053
187.503
191.864
196.125
200.277
204.308
208.206
211.956
215.553
218.998
222.292
225.428
228.406
231.221
233.882
236.409
238.817
241.115
243.298
245.346
247.239
248.96
250.487
251.795
252.846
253.592
253.994
254.032
253.685
252.933
251.745
250.068
247.865
245.11
241.788
237.907
233.475
228.495
222.981
216.959
210.465
203.553
196.259
188.604
180.602
172.272
163.652
154.798
145.764
136.593
127.329
118.01
108.677
99.382
90.175
81.095
72.183
63.467
54.986
46.794
38.952
31.512
24.512
17.973
11.912
6.346
1.282
-3.279
-7.344
-10.937
-14.084
-16.817
-19.174
-21.188
-22.894
-24.338
-25.571
-26.635
-27.57
-28.404
-29.159
-29.857
-30.516
-31.145
-31.749
-32.326
-32.867
-33.36
-33.786
-34.131
-34.387
-34.544
-34.591
-34.525
-34.341
-34.043
-33.641
-33.143
-32.558
-31.897
-31.171
-30.396
-29.589
-28.768
-27.954
-27.164
-26.412
-25.707
-25.061
-24.477
-23.963
-23.519
-23.142
-22.832
-22.586
-22.405
-22.287
-22.229
-22.228
-22.28
-22.382
-22.529
-22.718
-22.946
-23.211
-23.51
-23.841
-24.203
-24.595
-25.015
-25.463
-25.936
-26.431
-26.948
-27.483
-28.035
-28.602
-29.182
-29.773
-30.373
-30.983
-31.601
-32.227
-32.859
-33.498
-34.142
-34.791
-35.446
-36.105
-36.768
-37.434
-38.104
-38.776
-39.451
-40.126
-40.802
-41.477
-42.15
-42.818
-43.481
-44.137
-44.782
-45.416
-46.035
-46.638
-47.221
-47.782
-48.318
-48.826
-49.304
-49.749
-50.157
-50.526
-50.852
-51.134
-51.368
-51.552
-51.683
-51.759
-51.779
-51.739
-51.639
-51.477
-51.252
-50.964
-50.611
-50.193
-49.712
-49.166
-48.558
-47.889
-47.16
-46.375
-45.535
-44.644
-43.705
-42.723
-41.702
-40.647
-39.563
-38.454
-37.327
-36.188
-35.042
-33.896
-32.756
-31.628
-30.518
-29.434
-28.38
-27.363
-26.388
-25.462
-24.59
-23.777
-23.029
-22.35
-21.744
-21.217
-20.771
-20.411
-20.139
-19.957
-19.869
-19.873
-19.973
-20.169
-20.459
-20.845
-21.323
-21.894
-22.555
-23.303
-24.135
-25.048
-26.038
-27.102
-28.234
-29.432
-30.691
-32.006
-33.374
-34.791
-36.252
-37.754
-39.292
-40.862
-42.459
-44.079
-45.719
-47.371
-49.033
-50.697
-52.361
-54.02
-55.67
-57.306
-58.922
-60.517
-62.084
-63.623
-65.13
-66.598
-68.023
-69.398
-70.72
-71.988
-73.199
-74.348
-75.43
-76.44
-77.371
-78.218
-78.973
-79.619
-80.141
-80.521
-80.746
-80.808
-80.703
-80.426
-79.974
-79.341
-78.527
-77.538
-76.38
-75.068
-73.619
-72.054
-70.412
-68.745
-67.118
-65.607
-64.283
-63.205
-62.422
-61.958
-61.844
-62.117
-62.812
-63.966
-65.602
-67.692
-70.211
-73.148
-76.396
-79.775
-82.993
-85.619
-87.263
-87.649
-86.582
-83.946
-79.835
-74.483
-68.353
-62.183
-56.699
-52.586
-50.253
-49.778
-50.927
-53.12
-55.424
-56.628
-55.402
-49.978
-38.86
-21.133
4.072
35.882
71.101
106.691
138.967
165.724
190.595
215.687
239.591
257.684
254.154
213.47
126.408
-9.149
-173.08
-356.707
-563.158
-733.937
-808.395
-820.262
-809.133
-756.17
-657.597
-538.981
-420.326
-318.896
-243.169
-192.152
-160.286
-134.258
-107.074
-79.117
-52.826
-35.141
-28.801
-31.418
-39.364
-47.296
-51.801
-52.316
-49.133
-43.163
-35.333
-26.287
-16.942
-8.462
-1.923
2.154
3.829
3.437
1.503
-1.448
-4.95
-8.433
-11.309
-13.249
-14.146
-14.025
-13.04
-11.326
-8.952
-6.02
-2.661
1.023
4.923
8.946
13.032
17.093
21.036
24.776
28.224
31.319
34.043
36.402
38.42
40.146
41.603
42.804
43.779
44.557
45.175
45.68
46.109
46.492
46.869
47.277
47.757
48.345
49.053
49.878
50.811
51.836
52.953
54.18
55.525
56.994
58.592
60.319
62.181
64.19
66.347
68.647
71.083
73.65
76.348
79.186
82.171
85.311
88.606
92.046
95.628
99.349
103.202
107.182
111.28
115.486
119.798
124.218
128.744
133.369
138.086
142.88
147.737
152.641
157.575
162.514
167.437
172.325
177.165
181.945
186.653
191.272
195.781
200.16
204.394
208.478
212.407
216.178
219.795
223.269
226.625
229.897
233.106
236.264
239.365
242.402
245.371
248.27
251.095
253.836
256.473
258.976
261.323
263.482
265.406
267.034
268.278
269.045
269.263
268.876
267.85
266.155
263.753
260.612
256.708
252.033
246.589
240.383
233.415
225.702
217.286
208.236
198.652
188.642
178.299
167.706
156.936
146.068
135.191
124.392
113.754
103.348
93.237
83.491
74.186
65.383
57.121
49.412
42.241
35.591
29.448
23.797
18.622
13.897
9.583
5.637
2.016
-1.316
-4.396
-7.263
-9.969
-12.551
-15.038
-17.443
-19.764
-22.001
-24.155
-26.223
-28.202
-30.08
-31.838
-33.458
-34.918
-36.203
-37.301
-38.202
-38.891
-39.364
-39.619
-39.661
-39.506
-39.167
-38.655
-37.987
-37.179
-36.251
-35.226
-34.126
-32.977
-31.801
-30.614
-29.433
-28.273
-27.147
-26.064
-25.032
-24.054
-23.133
-22.275
-21.481
-20.756
-20.101
-19.514
-18.996
-18.544
-18.158
-17.834
-17.573
-17.372
-17.23
-17.144
-17.114
-17.139
-17.216
-17.343
-17.515
-17.73
-17.984
-18.271
-18.589
-18.932
-19.297
-19.68
-20.077
-20.486
-20.902
-21.323
-21.745
-22.165
-22.581
-22.989
-23.389
-23.777
-24.153
-24.515
-24.862
-25.194
-25.509
-25.809
-26.091
-26.357
-26.605
-26.837
-27.052
-27.252
-27.436
-27.607
-27.765
-27.911
-28.048
-28.176
-28.297
-28.413
-28.524
-28.633
-28.74
-28.847
-28.954
-29.064
-29.178
-29.297
-29.422
-29.555
-29.696
-29.847
-30.008
-30.18
-30.363
-30.557
-30.763
-30.98
-31.209
-31.45
-31.702
-31.965
-32.24
-32.524
-32.816
-33.116
-33.423
-33.733
-34.046
-34.359
-34.669
-34.977
-35.279
-35.575
-35.863
-36.142
-36.41
-36.667
-36.91
-37.138
-37.348
-37.535
-37.697
-37.832
-37.938
-38.013
-38.056
-38.066
-38.041
-37.984
-37.894
-37.771
-37.612
-37.413
-37.171
-36.891
-36.577
-36.237
-35.879
-35.508
-35.133
-34.766
-34.414
-34.081
-33.764
-33.453
-33.143
-32.834
-32.532
-32.249
-31.991
-31.753
-31.531
-31.32
-31.112
-30.904
-30.682
-30.423
-30.119
-29.772
-29.401
-29.041
-28.719
-28.445
-28.231
-28.076
-27.987
-27.983
-28.074
-28.27
-28.585
-29.03
-29.63
-30.427
-31.438
-32.662
-34.082
-35.655
-37.35
-39.151
-41.041
-43.007
-45.035
-47.105
-49.203
-51.326
-53.463
-55.598
-57.705
-59.744
-61.689
-63.534
-65.283
-66.959
-68.578
-70.142
-71.659
-73.135
-74.577
-75.992
-77.378
-78.724
-80.02
-81.265
-82.461
-83.622
-84.756
-85.862
-86.933
-87.953
-88.913
-89.808
-90.628
-91.357
-91.974
-92.453
-92.777
-92.945
-92.952
-92.798
-92.477
-91.976
-91.282
-90.392
-89.304
-88.026
-86.564
-84.924
-83.126
-81.211
-79.242
-77.307
-75.488
-73.846
-72.431
-71.268
-70.393
-69.872
-69.773
-70.166
-71.114
-72.592
-74.588
-77.134
-80.144
-83.464
-86.834
-89.754
-91.775
-92.73
-92.48
-90.975
-88.425
-84.888
-80.605
-76.386
-72.925
-70.583
-69.588
-69.64
-70.05
-70.575
-70.704
-69.122
-64.5
-55.557
-41.102
-20.827
5
36.776
73.104
110.188
144.731
172.185
191.9
208.513
221.884
231.921
229.212
190.064
117.036
30.386
-88.164
-276.151
-504.161
-670.187
-728.883
-739.202
-742.193
-711.45
-634.409
-534.503
-425.823
-318.999
-231.955
-170.466
-135.507
-122.059
-114.532
-105.402
-93.087
-78.607
-68.952
-66.574
-68.566
-71.485
-71.317
-66.454
-57.872
-46.865
-34.712
-22.364
-10.829
-1.297
5.592
9.666
11.161
10.64
8.579
5.4
1.688
-1.939
-5.059
-7.414
-8.917
-9.624
-9.557
-8.734
-7.222
-5.108
-2.481
0.576
3.99
7.701
11.634
15.693
19.786
23.819
27.705
31.369
34.746
37.794
40.491
42.831
44.825
46.49
47.855
48.955
49.834
50.535
51.097
51.56
51.959
52.333
52.719
53.149
53.655
54.257
54.969
55.804
56.765
57.857
59.081
60.433
61.91
63.507
65.223
67.058
69.011
71.082
73.272
75.58
78.004
80.546
83.206
85.985
88.884
91.903
95.042
98.301
101.682
105.188
108.823
112.586
116.475
120.485
124.61
128.839
133.163
137.567
142.031
146.536
151.066
155.607
160.151
164.689
169.205
173.683
178.102
182.448
186.718
190.908
195.016
199.045
203.004
206.913
210.808
214.714
218.646
222.608
226.59
230.582
234.581
238.579
242.564
246.511
250.379
254.125
257.712
261.087
264.191
266.937
269.22
270.952
272.072
272.533
272.307
271.357
269.651
267.166
263.9
259.87
255.105
249.64
243.502
236.734
229.399
221.59
213.419
204.977
196.331
187.532
178.634
169.705
160.814
152.014
143.336
134.799
126.419
118.216
110.219
102.444
94.891
87.538
80.359
73.347
66.511
59.875
53.442
47.195
41.12
35.215
29.494
23.977
18.677
13.594
8.729
4.09
-0.31
-4.445
-8.302
-11.883
-15.194
-18.253
-21.059
-23.598
-25.861
-27.848
-29.567
-31.032
-32.25
-33.221
-33.951
-34.455
-34.751
-34.859
-34.793
-34.559
-34.163
-33.613
-32.923
-32.115
-31.206
-30.213
-29.148
-28.026
-26.862
-25.674
-24.474
-23.27
-22.071
-20.882
-19.713
-18.575
-17.476
-16.423
-15.421
-14.475
-13.586
-12.76
-11.997
-11.298
-10.664
-10.094
-9.587
-9.143
-8.762
-8.444
-8.186
-7.985
-7.839
-7.746
-7.702
-7.703
-7.746
-7.826
-7.94
-8.084
-8.254
-8.447
-8.658
-8.885
-9.123
-9.369
-9.62
-9.872
-10.124
-10.372
-10.615
-10.85
-11.076
-11.292
-11.496
-11.689
-11.87
-12.038
-12.193
-12.336
-12.467
-12.587
-12.697
-12.797
-12.889
-12.974
-13.053
-13.128
-13.2
-13.27
-13.34
-13.41
-13.482
-13.557
-13.637
-13.723
-13.816
-13.917
-14.028
-14.151
-14.286
-14.436
-14.599
-14.778
-14.973
-15.184
-15.411
-15.656
-15.918
-16.196
-16.492
-16.805
-17.134
-17.48
-17.842
-18.219
-18.612
-19.018
-19.438
-19.871
-20.316
-20.774
-21.244
-21.725
-22.218
-22.722
-23.236
-23.758
-24.289
-24.826
-25.366
-25.909
-26.45
-26.989
-27.524
-28.051
-28.57
-29.079
-29.577
-30.064
-30.539
-31
-31.444
-31.87
-32.274
-32.654
-33.007
-33.329
-33.616
-33.867
-34.079
-34.252
-34.385
-34.476
-34.521
-34.514
-34.453
-34.338
-34.168
-33.946
-33.674
-33.36
-33.015
-32.658
-32.302
-31.954
-31.618
-31.29
-30.968
-30.653
-30.341
-30.027
-29.71
-29.38
-29.036
-28.678
-28.298
-27.884
-27.411
-26.844
-26.158
-25.348
-24.411
-23.36
-22.212
-20.984
-19.708
-18.425
-17.168
-15.972
-14.86
-13.845
-12.953
-12.218
-11.682
-11.403
-11.421
-11.756
-12.422
-13.422
-14.744
-16.371
-18.265
-20.37
-22.641
-25.042
-27.545
-30.137
-32.79
-35.472
-38.146
-40.766
-43.296
-45.713
-47.997
-50.129
-52.107
-53.936
-55.638
-57.249
-58.796
-60.295
-61.757
-63.181
-64.573
-65.94
-67.289
-68.624
-69.952
-71.275
-72.597
-73.918
-75.236
-76.538
-77.803
-79.002
-80.112
-81.11
-81.979
-82.706
-83.276
-83.676
-83.897
-83.933
-83.782
-83.437
-82.897
-82.163
-81.236
-80.121
-78.841
-77.421
-75.896
-74.309
-72.704
-71.125
-69.632
-68.296
-67.178
-66.335
-65.801
-65.586
-65.707
-66.199
-67.103
-68.456
-70.264
-72.456
-74.964
-77.769
-80.766
-83.77
-86.495
-88.457
-89.217
-88.642
-86.659
-83.177
-78.346
-72.351
-65.529
-58.833
-53.238
-49.135
-46.724
-46.001
-46.427
-47.506
-48.619
-48.173
-44.178
-35.137
-19.82
2.812
31.922
64.917
99.26
131.098
158.326
184.575
212.263
240.6
264.941
269.196
235.928
155.921
26.238
-140.584
-321.105
-493.232
-634.59
-729.194
-771.774
-762.535
-706.709
-616.173
-506.321
-392.298
-291.825
-217.75
-171.444
-149.309
-140.203
-130.769
-116.554
-98.045
-79.69
-67.891
-63.716
-64.268
-65.664
-64.273
-59.091
-50.965
-40.979
-30.223
-19.409
-9.39
-1.274
4.368
7.407
8.067
6.871
4.266
0.644
-3.436
-7.353
-10.675
-13.139
-14.663
-15.315
-15.131
-14.138
-12.408
-10.037
-7.131
-3.792
-0.105
3.859
8.02
12.278
16.526
20.659
24.581
28.21
31.495
34.408
36.936
39.083
40.867
42.308
43.445
44.323
44.985
45.475
45.836
46.104
46.325
46.543
46.797
47.126
47.556
48.103
48.781
49.598
50.56
51.67
52.927
54.325
55.864
57.544
59.362
61.321
63.421
65.659
68.035
70.548
73.198
75.985
78.911
81.974
85.177
88.52
92.001
95.622
99.383
103.284
107.327
111.512
115.833
120.284
124.855
129.538
134.32
139.183
144.107
149.073
154.061
159.06
164.057
169.039
173.988
178.885
183.71
188.451
193.102
197.66
202.125
206.501
210.801
215.048
219.274
223.501
227.738
231.984
236.227
240.459
244.672
248.856
252.995
257.055
260.997
264.776
268.342
271.636
274.586
277.099
279.078
280.451
281.162
281.181
280.489
279.068
276.9
273.982
270.32
265.939
260.871
255.147
248.813
241.923
234.548
226.78
218.709
210.397
201.889
193.215
184.389
175.437
166.386
157.254
148.058
138.807
129.516
120.211
110.912
101.631
92.383
83.169
74.001
64.927
55.995
47.265
38.809
30.677
22.915
15.575
8.694
2.306
-3.565
-8.916
-13.744
-18.046
-21.83
-25.107
-27.9
-30.265
-32.254
-33.919
-35.321
-36.506
-37.515
-38.394
-39.174
-39.878
-40.526
-41.129
-41.692
-42.225
-42.731
-43.207
-43.643
-44.014
-44.3
-44.487
-44.561
-44.516
-44.347
-44.053
-43.639
-43.117
-42.498
-41.797
-41.029
-40.204
-39.335
-38.44
-37.535
-36.641
-35.778
-34.958
-34.191
-33.487
-32.851
-32.289
-31.801
-31.385
-31.039
-30.76
-30.546
-30.396
-30.31
-30.283
-30.311
-30.392
-30.52
-30.692
-30.906
-31.156
-31.441
-31.756
-32.098
-32.466
-32.857
-33.266
-33.691
-34.128
-34.572
-35.022
-35.472
-35.919
-36.361
-36.795
-37.219
-37.63
-38.028
-38.411
-38.778
-39.127
-39.458
-39.771
-40.065
-40.34
-40.596
-40.832
-41.048
-41.246
-41.426
-41.587
-41.731
-41.859
-41.97
-42.066
-42.147
-42.216
-42.272
-42.318
-42.355
-42.383
-42.405
-42.422
-42.436
-42.446
-42.456
-42.465
-42.475
-42.487
-42.501
-42.518
-42.54
-42.566
-42.598
-42.637
-42.684
-42.739
-42.803
-42.876
-42.96
-43.054
-43.159
-43.275
-43.402
-43.541
-43.692
-43.855
-44.03
-44.218
-44.417
-44.629
-44.852
-45.087
-45.332
-45.588
-45.854
-46.129
-46.414
-46.708
-47.011
-47.322
-47.641
-47.967
-48.299
-48.634
-48.972
-49.31
-49.646
-49.977
-50.3
-50.614
-50.916
-51.206
-51.48
-51.739
-51.98
-52.202
-52.403
-52.579
-52.728
-52.845
-52.928
-52.973
-52.976
-52.936
-52.85
-52.717
-52.537
-52.31
-52.032
-51.701
-51.312
-50.862
-50.348
-49.774
-49.143
-48.463
-47.744
-46.997
-46.236
-45.472
-44.709
-43.95
-43.189
-42.421
-41.639
-40.843
-40.036
-39.223
-38.406
-37.584
-36.754
-35.904
-35.019
-34.08
-33.063
-31.953
-30.742
-29.441
-28.07
-26.659
-25.246
-23.858
-22.515
-21.236
-20.036
-18.931
-17.94
-17.087
-16.4
-15.916
-15.677
-15.718
-16.058
-16.698
-17.621
-18.795
-20.179
-21.735
-23.433
-25.249
-27.164
-29.159
-31.219
-33.325
-35.455
-37.58
-39.661
-41.667
-43.571
-45.363
-47.046
-48.634
-50.152
-51.619
-53.054
-54.468
-55.865
-57.248
-58.617
-59.971
-61.305
-62.622
-63.927
-65.225
-66.519
-67.807
-69.084
-70.338
-71.55
-72.705
-73.788
-74.787
-75.693
-76.494
-77.172
-77.711
-78.099
-78.323
-78.377
-78.256
-77.948
-77.452
-76.763
-75.877
-74.801
-73.545
-72.115
-70.525
-68.798
-66.965
-65.089
-63.251
-61.52
-59.97
-58.651
-57.594
-56.839
-56.434
-56.425
-56.868
-57.792
-59.177
-61.025
-63.367
-66.135
-69.174
-72.173
-74.67
-76.257
-76.677
-75.77
-73.374
-69.529
-64.528
-58.916
-53.601
-49.471
-47.086
-46.655
-48.216
-51.44
-55.496
-59.211
-60.824
-58.506
-50.638
-35.998
-13.884
16.206
52.772
92.07
130.081
162.301
187.441
209.327
229.771
247.612
256.476
241.468
188.728
93.567
-34.711
-196.005
-397.009
-580.759
-680.476
-727.884
-762.997
-756.268
-690.196
-587.027
-465.713
-344.345
-247.042
-183.416
-151.486
-142.622
-138.46
-128.578
-112.594
-93.521
-79.34
-74.035
-75.257
-78.682
-79.618
-76.09
-68.575
-58.366
-46.991
-35.198
-23.765
-14.055
-6.81
-2.29
-0.488
-0.84
-2.793
-5.983
-9.839
-13.673
-17.038
-19.636
-21.311
-22.13
-22.131
-21.321
-19.783
-17.613
-14.892
-11.715
-8.162
-4.29
-0.188
4.044
8.31
12.507
16.545
20.348
23.845
26.995
29.774
32.179
34.224
35.924
37.307
38.41
39.275
39.947
40.472
40.892
41.245
41.574
41.919
42.315
42.794
43.38
44.088
44.931
45.914
47.042
48.318
49.742
51.309
53.02
54.871
56.864
59
61.279
63.7
66.264
68.969
71.815
74.806
77.941
81.222
84.649
88.223
91.943
95.812
99.831
104.001
108.322
112.788
117.392
122.127
126.984
131.949
137.009
142.143
147.334
152.566
157.829
163.112
168.401
173.681
178.933
184.141
189.295
194.39
199.421
204.387
209.294
214.153
218.985
223.815
228.657
233.512
238.375
243.235
248.078
252.897
257.671
262.375
266.976
271.435
275.711
279.758
283.515
286.904
289.841
292.243
294.044
295.203
295.683
295.459
294.515
292.842
290.451
287.369
283.621
279.231
274.228
268.649
262.554
256.022
249.13
241.95
234.537
226.935
219.187
211.331
203.391
195.378
187.28
179.084
170.792
162.42
153.986
145.505
136.981
128.411
119.807
111.199
102.622
94.11
85.689
77.388
69.25
61.337
53.724
46.477
39.638
33.234
27.282
21.803
16.812
12.313
8.287
4.696
1.506
-1.305
-3.756
-5.864
-7.658
-9.187
-10.501
-11.639
-12.631
-13.496
-14.252
-14.921
-15.516
-16.036
-16.467
-16.785
-16.974
-17.033
-16.963
-16.77
-16.455
-16.013
-15.441
-14.747
-13.939
-13.025
-12.016
-10.915
-9.736
-8.496
-7.22
-5.934
-4.658
-3.407
-2.192
-1.022
0.094
1.148
2.136
3.058
3.912
4.697
5.41
6.049
6.613
7.103
7.522
7.875
8.163
8.39
8.557
8.668
8.725
8.731
8.687
8.594
8.453
8.268
8.042
7.778
7.479
7.151
6.796
6.418
6.021
5.608
5.182
4.747
4.303
3.854
3.403
2.95
2.499
2.052
1.609
1.175
0.749
0.333
-0.07
-0.46
-0.835
-1.194
-1.536
-1.86
-2.165
-2.45
-2.714
-2.956
-3.177
-3.375
-3.552
-3.706
-3.838
-3.949
-4.04
-4.11
-4.162
-4.197
-4.214
-4.215
-4.202
-4.175
-4.137
-4.089
-4.032
-3.968
-3.9
-3.828
-3.757
-3.687
-3.621
-3.562
-3.511
-3.471
-3.446
-3.435
-3.444
-3.472
-3.523
-3.599
-3.7
-3.83
-3.99
-4.18
-4.402
-4.657
-4.946
-5.268
-5.625
-6.016
-6.441
-6.9
-7.391
-7.915
-8.469
-9.052
-9.662
-10.296
-10.954
-11.631
-12.324
-13.031
-13.748
-14.47
-15.195
-15.917
-16.634
-17.34
-18.031
-18.704
-19.355
-19.978
-20.571
-21.128
-21.648
-22.126
-22.559
-22.944
-23.278
-23.558
-23.784
-23.952
-24.062
-24.111
-24.101
-24.029
-23.897
-23.705
-23.454
-23.145
-22.781
-22.363
-21.896
-21.382
-20.825
-20.23
-19.601
-18.944
-18.263
-17.563
-16.851
-16.132
-15.411
-14.695
-13.989
-13.299
-12.631
-11.991
-11.384
-10.816
-10.292
-9.818
-9.397
-9.035
-8.736
-8.503
-8.339
-8.248
-8.233
-8.295
-8.436
-8.657
-8.958
-9.341
-9.805
-10.347
-10.968
-11.665
-12.436
-13.279
-14.191
-15.17
-16.212
-17.315
-18.476
-19.693
-20.961
-22.279
-23.641
-25.046
-26.488
-27.965
-29.471
-31.002
-32.553
-34.119
-35.696
-37.28
-38.865
-40.447
-42.022
-43.587
-45.138
-46.671
-48.177
-49.652
-51.088
-52.48
-53.828
-55.126
-56.37
-57.555
-58.676
-59.73
-60.711
-61.607
-62.401
-63.073
-63.608
-63.995
-64.229
-64.308
-64.228
-63.984
-63.575
-63.002
-62.27
-61.383
-60.352
-59.188
-57.914
-56.572
-55.22
-53.936
-52.789
-51.838
-51.132
-50.695
-50.565
-50.79
-51.406
-52.46
-53.988
-55.985
-58.47
-61.485
-64.931
-68.627
-72.293
-75.477
-77.835
-79.162
-79.156
-77.6
-74.614
-70.437
-65.594
-60.979
-57.106
-54.308
-53.198
-54.003
-56.432
-60.063
-63.847
-66.204
-66.163
-62.786
-54.418
-39.912
-18.707
9.917
44.634
81.596
117.722
149.394
174.385
196.805
219.318
240.694
256.327
250.131
206.054
114.738
-24.959
-191.324
-376.594
-586.096
-759.516
-833.886
-846.107
-839.383
-791.473
-693.446
-571.37
-444.576
-330.338
-244.011
-187.92
-158.976
-145.723
-133.583
-117.675
-98.158
-79.406
-68.259
-65.728
-68.478
-72.164
-72.655
-68.72
-61.244
-51.393
-40.359
-28.99
-18.332
-9.691
-3.772
-0.739
-0.344
-2
-5.201
-9.518
-14.339
-18.996
-23.049
-26.243
-28.514
-29.958
-30.634
-30.574
-29.856
-28.573
-26.804
-24.628
-22.111
-19.308
-16.295
-13.149
-9.937
-6.717
-3.54
-0.462
2.479
5.261
7.88
10.339
12.636
14.76
16.698
18.451
20.04
21.491
22.829
24.067
25.212
26.265
27.236
28.14
28.991
29.795
30.553
31.272
31.97
32.681
33.443
34.281
35.209
36.24
37.382
38.65
40.061
41.628
43.357
45.25
47.312
49.55
51.973
54.58
57.365
60.317
63.417
66.658
70.031
73.529
77.145
80.873
84.708
88.65
92.699
96.851
101.1
105.436
109.848
114.326
118.858
123.424
128.008
132.592
137.164
141.716
146.242
150.731
155.172
159.55
163.858
168.097
172.266
176.362
180.382
184.324
188.197
192.025
195.823
199.6
203.351
207.056
210.695
214.249
217.689
220.982
224.08
226.919
229.45
231.633
233.427
234.791
235.673
235.999
235.717
234.79
233.194
230.929
227.999
224.406
220.18
215.365
210.019
204.22
198.027
191.482
184.633
177.527
170.219
162.785
155.277
147.728
140.165
132.601
125.039
117.489
109.935
102.34
94.669
86.885
78.967
70.92
62.749
54.458
46.059
37.554
28.964
20.336
11.716
3.156
-5.278
-13.523
-21.5
-29.105
-36.254
-42.875
-48.91
-54.335
-59.126
-63.262
-66.734
-69.539
-71.688
-73.215
-74.154
-74.541
-74.429
-73.877
-72.961
-71.782
-70.426
-68.957
-67.431
-65.884
-64.345
-62.851
-61.43
-60.1
-58.875
-57.759
-56.756
-55.882
-55.139
-54.518
-53.994
-53.517
-53.053
-52.58
-52.087
-51.572
-51.034
-50.468
-49.871
-49.251
-48.618
-47.975
-47.325
-46.655
-45.957
-45.234
-44.5
-43.786
-43.113
-42.492
-41.931
-41.432
-40.999
-40.637
-40.344
-40.11
-39.928
-39.791
-39.7
-39.662
-39.683
-39.762
-39.891
-40.058
-40.252
-40.467
-40.697
-40.935
-41.173
-41.406
-41.632
-41.853
-42.071
-42.286
-42.496
-42.697
-42.887
-43.064
-43.23
-43.385
-43.531
-43.669
-43.801
-43.93
-44.06
-44.194
-44.333
-44.477
-44.627
-44.785
-44.951
-45.128
-45.315
-45.514
-45.726
-45.951
-46.192
-46.448
-46.72
-47.008
-47.312
-47.631
-47.965
-48.314
-48.676
-49.051
-49.436
-49.83
-50.232
-50.64
-51.051
-51.463
-51.872
-52.276
-52.671
-53.054
-53.421
-53.768
-54.091
-54.387
-54.652
-54.882
-55.074
-55.226
-55.333
-55.393
-55.404
-55.362
-55.267
-55.115
-54.906
-54.637
-54.309
-53.921
-53.472
-52.964
-52.396
-51.771
-51.089
-50.353
-49.565
-48.727
-47.843
-46.917
-45.951
-44.951
-43.922
-42.868
-41.796
-40.71
-39.616
-38.521
-37.43
-36.349
-35.284
-34.239
-33.222
-32.238
-31.291
-30.389
-29.534
-28.733
-27.991
-27.31
-26.696
-26.151
-25.678
-25.28
-24.958
-24.715
-24.551
-24.467
-24.464
-24.542
-24.7
-24.938
-25.254
-25.646
-26.112
-26.648
-27.254
-27.925
-28.658
-29.45
-30.298
-31.199
-32.15
-33.149
-34.191
-35.274
-36.395
-37.549
-38.733
-39.944
-41.177
-42.425
-43.687
-44.957
-46.232
-47.507
-48.778
-50.041
-51.293
-52.53
-53.75
-54.948
-56.116
-57.248
-58.339
-59.383
-60.379
-61.327
-62.219
-63.053
-63.824
-64.527
-65.156
-65.701
-66.142
-66.458
-66.634
-66.654
-66.514
-66.21
-65.738
-65.094
-64.274
-63.272
-62.09
-60.737
-59.221
-57.558
-55.772
-53.898
-52.001
-50.166
-48.467
-46.976
-45.741
-44.79
-44.157
-43.88
-44.002
-44.579
-45.645
-47.178
-49.17
-51.625
-54.453
-57.506
-60.494
-62.978
-64.556
-64.943
-63.943
-61.432
-57.5
-52.368
-46.489
-40.616
-35.489
-31.798
-29.957
-30.028
-31.716
-34.418
-37.173
-38.611
-37.299
-31.343
-19.073
0.359
27.706
62.011
99.776
137.467
171.083
198.35
223.2
248.36
272.935
291.927
288.302
245.987
155.374
14.788
-153.518
-338.42
-540.501
-702.757
-769.035
-772.712
-751.613
-689.243
-583.54
-459.429
-338.412
-240.334
-174.214
-138.15
-123.764
-113.49
-97.539
-75.819
-51.975
-34.872
-28.311
-29.919
-35.519
-39.475
-39.215
-35.103
-27.92
-18.861
-8.795
1.754
11.649
19.605
25.048
27.89
28.405
27.131
24.527
20.991
17.111
13.535
10.664
8.717
7.74
7.627
8.315
9.76
11.877
14.557
17.694
21.184
24.939
28.891
32.956
37.038
41.042
44.869
48.437
51.677
54.547
57.032
59.128
60.848
62.212
63.244
63.982
64.473
64.76
64.888
64.899
64.828
64.717
64.607
64.535
64.533
64.624
64.823
65.139
65.582
66.155
66.863
67.704
68.676
69.779
71.012
72.377
73.877
75.51
77.277
79.179
81.217
83.393
85.708
88.164
90.762
93.505
96.393
99.43
102.613
105.944
109.422
113.049
116.826
120.754
124.827
129.039
133.382
137.845
142.416
147.079
151.81
156.59
161.4
166.225
171.055
175.874
180.664
185.405
190.077
194.668
199.171
203.581
207.893
212.109
216.237
220.298
224.32
228.319
232.302
236.264
240.196
244.091
247.942
251.737
255.455
259.064
262.527
265.808
268.864
271.642
274.076
276.084
277.585
278.519
278.839
278.508
277.494
275.767
273.305
270.097
266.149
261.471
256.079
249.992
243.245
235.891
227.996
219.638
210.885
201.791
192.412
182.803
173.024
163.135
153.19
143.24
133.334
123.53
113.886
104.449
95.252
86.315
77.652
69.279
61.229
53.532
46.211
39.28
32.743
26.606
20.873
15.54
10.59
5.983
1.689
-2.315
-6.04
-9.492
-12.681
-15.627
-18.359
-20.901
-23.27
-25.476
-27.53
-29.444
-31.226
-32.878
-34.383
-35.714
-36.856
-37.802
-38.554
-39.118
-39.497
-39.689
-39.694
-39.519
-39.174
-38.672
-38.021
-37.23
-36.31
-35.28
-34.166
-32.998
-31.797
-30.582
-29.366
-28.161
-26.98
-25.835
-24.733
-23.677
-22.671
-21.719
-20.827
-19.998
-19.237
-18.542
-17.913
-17.346
-16.841
-16.396
-16.01
-15.679
-15.404
-15.18
-15.008
-14.887
-14.816
-14.791
-14.809
-14.866
-14.96
-15.086
-15.241
-15.421
-15.621
-15.838
-16.068
-16.31
-16.559
-16.813
-17.069
-17.325
-17.578
-17.826
-18.069
-18.303
-18.528
-18.742
-18.945
-19.136
-19.314
-19.477
-19.627
-19.763
-19.884
-19.991
-20.083
-20.161
-20.226
-20.277
-20.316
-20.343
-20.359
-20.365
-20.361
-20.35
-20.331
-20.307
-20.278
-20.245
-20.211
-20.174
-20.138
-20.102
-20.068
-20.037
-20.01
-19.989
-19.973
-19.965
-19.964
-19.974
-19.993
-20.023
-20.066
-20.121
-20.189
-20.272
-20.369
-20.48
-20.607
-20.75
-20.908
-21.081
-21.27
-21.474
-21.693
-21.926
-22.172
-22.43
-22.7
-22.979
-23.267
-23.561
-23.861
-24.164
-24.468
-24.771
-25.07
-25.365
-25.651
-25.926
-26.188
-26.434
-26.662
-26.869
-27.052
-27.208
-27.336
-27.433
-27.496
-27.525
-27.516
-27.468
-27.381
-27.252
-27.08
-26.866
-26.609
-26.308
-25.965
-25.579
-25.153
-24.687
-24.184
-23.646
-23.074
-22.474
-21.846
-21.196
-20.526
-19.841
-19.144
-18.441
-17.735
-17.03
-16.333
-15.647
-14.977
-14.329
-13.707
-13.116
-12.56
-12.045
-11.575
-11.154
-10.785
-10.473
-10.22
-10.03
-9.905
-9.848
-9.86
-9.943
-10.096
-10.322
-10.619
-10.987
-11.425
-11.931
-12.505
-13.143
-13.844
-14.606
-15.427
-16.305
-17.238
-18.223
-19.258
-20.34
-21.465
-22.631
-23.834
-25.07
-26.336
-27.627
-28.939
-30.268
-31.612
-32.966
-34.326
-35.691
-37.054
-38.412
-39.764
-41.104
-42.43
-43.739
-45.026
-46.289
-47.528
-48.739
-49.917
-51.058
-52.157
-53.206
-54.197
-55.118
-55.956
-56.699
-57.334
-57.847
-58.226
-58.461
-58.542
-58.464
-58.219
-57.807
-57.229
-56.487
-55.588
-54.545
-53.38
-52.126
-50.826
-49.526
-48.27
-47.119
-46.137
-45.388
-44.925
-44.787
-44.986
-45.541
-46.484
-47.852
-49.686
-52.003
-54.733
-57.812
-61.196
-64.754
-68.31
-71.595
-74.151
-75.587
-75.783
-74.646
-72.133
-68.427
-63.603
-57.93
-52.194
-47.056
-42.855
-39.822
-37.807
-36.351
-35.374
-34.425
-32.277
-27.863
-19.887
-7.105
10.835
34.351
63.015
93.937
123.764
148.949
168.441
186.932
208.035
231.537
250.979
249.252
208.359
120.363
-9.157
-179.633
-391.092
-585.626
-694.02
-739.44
-763.307
-743.907
-673.036
-579.091
-475.453
-372.963
-287.951
-223.425
-180.695
-156.357
-136.897
-116.63
-94.657
-72.295
-56.93
-51.21
-52.869
-58.458
-62.685
-62.949
-59.493
-52.914
-44.26
-34.405
-23.903
-13.888
-5.697
0.029
3.17
3.964
2.929
0.523
-2.863
-6.653
-10.199
-13.104
-15.162
-16.339
-16.765
-16.521
-15.653
-14.244
-12.385
-10.154
-7.627
-4.861
-1.906
1.17
4.287
7.363
10.314
13.078
15.61
17.899
19.967
21.839
23.545
25.105
26.526
27.818
28.986
30.042
31.001
31.884
32.71
33.507
34.303
35.122
35.98
36.877
37.794
38.718
39.636
40.546
41.461
42.397
43.378
44.428
45.568
46.814
48.18
49.672
51.296
53.053
54.946
56.984
59.18
61.549
64.1
66.842
69.771
72.881
76.163
79.605
83.199
86.938
90.818
94.83
98.969
103.228
107.6
112.075
116.637
121.263
125.931
130.627
135.335
140.046
144.747
149.422
154.057
158.637
163.151
167.595
171.965
176.258
180.479
184.64
188.757
192.858
196.958
201.058
205.158
209.248
213.319
217.364
221.369
225.307
229.149
232.854
236.378
239.674
242.677
245.308
247.486
249.125
250.158
250.539
250.229
249.2
247.431
244.904
241.62
237.593
232.846
227.407
221.316
214.62
207.39
199.715
191.686
183.393
174.911
166.299
157.615
148.909
140.224
131.597
123.057
114.62
106.304
98.129
90.106
82.239
74.521
66.928
59.444
52.057
44.76
37.558
30.457
23.461
16.585
9.846
3.263
-3.142
-9.351
-15.354
-21.133
-26.674
-31.956
-36.955
-41.654
-46.042
-50.109
-53.851
-57.266
-60.354
-63.12
-65.574
-67.725
-69.585
-71.162
-72.465
-73.506
-74.297
-74.851
-75.183
-75.306
-75.234
-74.982
-74.563
-73.991
-73.281
-72.446
-71.498
-70.449
-69.314
-68.104
-66.833
-65.514
-64.158
-62.778
-61.384
-59.988
-58.599
-57.226
-55.877
-54.56
-53.281
-52.046
-50.861
-49.731
-48.659
-47.648
-46.702
-45.823
-45.012
-44.271
-43.599
-42.996
-42.463
-41.999
-41.601
-41.268
-40.998
-40.79
-40.639
-40.543
-40.5
-40.505
-40.557
-40.651
-40.784
-40.954
-41.155
-41.385
-41.641
-41.92
-42.217
-42.531
-42.859
-43.197
-43.544
-43.896
-44.252
-44.609
-44.965
-45.318
-45.666
-46.008
-46.343
-46.668
-46.982
-47.286
-47.577
-47.855
-48.119
-48.368
-48.603
-48.822
-49.024
-49.21
-49.378
-49.529
-49.661
-49.775
-49.87
-49.945
-50.001
-50.038
-50.055
-50.052
-50.03
-49.989
-49.928
-49.849
-49.752
-49.638
-49.507
-49.361
-49.2
-49.026
-48.839
-48.641
-48.432
-48.214
-47.987
-47.753
-47.513
-47.268
-47.019
-46.767
-46.514
-46.26
-46.007
-45.756
-45.507
-45.263
-45.022
-44.787
-44.557
-44.334
-44.117
-43.905
-43.7
-43.5
-43.303
-43.111
-42.919
-42.728
-42.534
-42.336
-42.132
-41.917
-41.691
-41.45
-41.192
-40.912
-40.61
-40.281
-39.923
-39.533
-39.108
-38.646
-38.144
-37.6
-37.011
-36.377
-35.694
-34.963
-34.182
-33.349
-32.467
-31.533
-30.55
-29.518
-28.439
-27.315
-26.149
-24.944
-23.704
-22.433
-21.136
-19.819
-18.486
-17.145
-15.8
-14.46
-13.129
-11.816
-10.527
-9.268
-8.047
-6.871
-5.746
-4.679
-3.676
-2.745
-1.891
-1.12
-0.437
0.154
0.647
1.039
1.327
1.508
1.58
1.541
1.391
1.129
0.756
0.273
-0.318
-1.015
-1.815
-2.713
-3.706
-4.789
-5.958
-7.208
-8.532
-9.926
-11.384
-12.901
-14.471
-16.088
-17.746
-19.439
-21.161
-22.906
-24.669
-26.44
-28.215
-29.985
-31.745
-33.489
-35.212
-36.905
-38.565
-40.185
-41.763
-43.294
-44.775
-46.197
-47.553
-48.839
-50.05
-51.186
-52.245
-53.225
-54.121
-54.93
-55.652
-56.281
-56.813
-57.229
-57.512
-57.647
-57.623
-57.437
-57.089
-56.578
-55.9
-55.051
-54.029
-52.837
-51.488
-49.989
-48.353
-46.602
-44.775
-42.935
-41.17
-39.556
-38.164
-37.043
-36.221
-35.731
-35.62
-35.936
-36.734
-38.057
-39.894
-42.243
-45.123
-48.454
-52.085
-55.737
-58.959
-61.333
-62.55
-62.394
-60.756
-57.745
-53.589
-48.721
-43.895
-39.864
-37.331
-36.708
-37.997
-40.811
-44.477
-48.071
-50.243
-49.445
-43.996
-32.432
-13.844
12.154
45.594
84.455
124.505
161.483
190.33
211.081
229.019
245.661
260.643
263.827
235.953
163.636
41.586
-115.512
-296.493
-499.522
-667.792
-743.732
-759.667
-756.875
-720.009
-640.063
-538.116
-427.341
-318.569
-229.306
-165.407
-127.632
-110.527
-98.896
-85.563
-69.244
-51.558
-39.858
-36.699
-39.463
-44.806
-48.109
-47.247
-42.929
-36.083
-27.736
-18.704
-9.606
-1.354
5.037
9.089
10.904
10.829
9.338
6.896
3.911
0.898
-1.562
-3.127
-3.686
-3.243
-1.923
0.17
2.983
6.407
10.302
14.548
19.032
23.66
28.369
33.073
37.667
42.057
46.145
49.867
53.196
56.118
58.636
60.766
62.528
63.953
65.088
65.975
66.66
67.187
67.593
67.923
68.22
68.527
68.887
69.328
69.869
70.522
71.295
72.192
73.216
74.367
75.639
77.031
78.544
80.179
81.939
83.825
85.836
87.973
90.234
92.62
95.132
97.769
100.533
103.423
106.44
109.583
112.855
116.256
119.784
123.437
127.213
131.107
135.114
139.231
143.45
147.765
152.17
156.657
161.223
165.864
170.575
175.346
180.165
185.016
189.88
194.739
199.574
204.361
209.081
213.718
218.261
222.706
227.049
231.281
235.389
239.352
243.151
246.774
250.211
253.453
256.5
259.349
261.999
264.462
266.74
268.822
270.687
272.293
273.595
274.564
275.177
275.42
275.283
274.754
273.82
272.477
270.716
268.523
265.881
262.755
259.122
254.982
250.347
245.257
239.759
233.879
227.639
221.057
214.14
206.904
199.357
191.494
183.32
174.853
166.122
157.179
148.073
138.841
129.514
120.108
110.639
101.143
91.668
82.264
72.989
63.898
55.053
46.529
38.392
30.694
23.47
16.735
10.497
4.767
-0.451
-5.15
-9.335
-13.027
-16.257
-19.068
-21.501
-23.597
-25.404
-26.976
-28.365
-29.612
-30.75
-31.797
-32.769
-33.681
-34.545
-35.369
-36.154
-36.893
-37.574
-38.177
-38.69
-39.102
-39.404
-39.586
-39.64
-39.563
-39.36
-39.042
-38.618
-38.099
-37.497
-36.822
-36.091
-35.322
-34.532
-33.743
-32.972
-32.232
-31.534
-30.887
-30.3
-29.776
-29.318
-28.923
-28.591
-28.321
-28.112
-27.963
-27.872
-27.837
-27.852
-27.915
-28.021
-28.168
-28.351
-28.568
-28.815
-29.091
-29.391
-29.716
-30.061
-30.424
-30.801
-31.19
-31.585
-31.984
-32.383
-32.779
-33.168
-33.547
-33.915
-34.27
-34.609
-34.932
-35.236
-35.522
-35.788
-36.035
-36.261
-36.466
-36.652
-36.818
-36.964
-37.092
-37.203
-37.295
-37.372
-37.433
-37.48
-37.514
-37.536
-37.548
-37.551
-37.547
-37.537
-37.524
-37.51
-37.496
-37.485
-37.478
-37.477
-37.484
-37.501
-37.529
-37.569
-37.624
-37.693
-37.777
-37.878
-37.995
-38.129
-38.28
-38.447
-38.631
-38.831
-39.047
-39.276
-39.52
-39.776
-40.043
-40.321
-40.607
-40.899
-41.197
-41.497
-41.797
-42.096
-42.391
-42.68
-42.959
-43.226
-43.478
-43.713
-43.928
-44.119
-44.285
-44.421
-44.527
-44.599
-44.635
-44.633
-44.591
-44.508
-44.381
-44.211
-43.996
-43.734
-43.427
-43.074
-42.675
-42.23
-41.741
-41.208
-40.634
-40.019
-39.367
-38.678
-37.956
-37.204
-36.425
-35.621
-34.798
-33.958
-33.107
-32.247
-31.385
-30.524
-29.669
-28.826
-27.997
-27.189
-26.407
-25.654
-24.936
-24.257
-23.621
-23.034
-22.499
-22.02
-21.6
-21.243
-20.951
-20.727
-20.573
-20.49
-20.48
-20.545
-20.685
-20.9
-21.191
-21.558
-21.999
-22.515
-23.103
-23.762
-24.49
-25.285
-26.146
-27.07
-28.054
-29.096
-30.195
-31.348
-32.553
-33.805
-35.101
-36.44
-37.816
-39.226
-40.666
-42.129
-43.612
-45.11
-46.62
-48.137
-49.656
-51.172
-52.681
-54.18
-55.664
-57.132
-58.574
-59.984
-61.357
-62.685
-63.97
-65.209
-66.395
-67.525
-68.591
-69.586
-70.506
-71.34
-72.07
-72.678
-73.144
-73.45
-73.591
-73.564
-73.364
-72.988
-72.427
-71.675
-70.736
-69.616
-68.329
-66.893
-65.327
-63.668
-61.975
-60.32
-58.788
-57.456
-56.381
-55.609
-55.165
-55.075
-55.394
-56.169
-57.448
-59.263
-61.561
-64.301
-67.474
-70.964
-74.589
-78.068
-80.915
-82.696
-83.262
-82.497
-80.351
-77.009
-72.525
-67.168
-61.766
-57.06
-53.478
-51.281
-50.252
-49.846
-49.949
-50.053
-48.826
-45.012
-37.106
-23.768
-4.738
20.242
50.812
84.027
116.26
143.624
163.88
181.196
199.64
219.538
236.462
233.411
193.02
104.348
-36.077
-206.677
-393.968
-596.915
-754.477
-807.726
-796.125
-762.564
-694.938
-594.705
-480.98
-369.971
-277.626
-209.143
-166.562
-145.55
-130.063
-112.162
-90.25
-66.147
-48.782
-41.879
-43.37
-49.489
-54.366
-55.166
-52.196
-46.14
-38.089
-28.843
-18.89
-9.389
-1.712
3.494
6.138
6.498
5.096
2.376
-1.262
-5.216
-8.794
-11.564
-13.325
-14.054
-13.879
-12.885
-11.118
-8.672
-5.672
-2.235
1.53
5.536
9.724
14.01
18.292
22.465
26.425
30.08
33.379
36.295
38.818
40.957
42.729
44.157
45.277
46.132
46.766
47.224
47.546
47.771
47.942
48.103
48.297
48.565
48.934
49.42
50.034
50.782
51.668
52.694
53.857
55.152
56.577
58.13
59.813
61.627
63.572
65.646
67.849
70.177
72.631
75.21
77.916
80.749
83.709
86.797
90.013
93.358
96.832
100.434
104.162
108.012
111.981
116.067
120.269
124.588
129.02
133.559
138.197
142.926
147.733
152.606
157.527
162.472
167.422
172.357
177.262
182.128
186.937
191.673
196.312
200.833
205.222
209.473
213.58
217.539
221.353
225.03
228.593
232.073
235.491
238.853
242.153
245.377
248.517
251.569
254.527
257.378
260.1
262.661
265.034
267.194
269.097
270.684
271.869
272.559
272.686
272.203
271.082
269.306
266.85
263.687
259.802
255.194
249.868
243.829
237.072
229.591
221.413
212.597
203.235
193.431
183.263
172.796
162.086
151.191
140.185
129.14
118.119
107.178
96.386
85.824
75.599
65.814
56.54
47.812
39.637
32.014
24.954
18.473
12.578
7.263
2.51
-1.7
-5.377
-8.541
-11.23
-13.508
-15.463
-17.182
-18.725
-20.133
-21.429
-22.635
-23.778
-24.88
-25.95
-26.99
-27.999
-28.98
-29.944
-30.892
-31.812
-32.678
-33.447
-34.086
-34.576
-34.907
-35.076
-35.084
-34.93
-34.623
-34.182
-33.625
-32.972
-32.235
-31.423
-30.55
-29.636
-28.703
-27.777
-26.881
-26.031
-25.238
-24.514
-23.868
-23.304
-22.825
-22.427
-22.107
-21.864
-21.696
-21.604
-21.586
-21.64
-21.761
-21.946
-22.191
-22.494
-22.849
-23.254
-23.705
-24.197
-24.729
-25.299
-25.902
-26.536
-27.196
-27.879
-28.58
-29.295
-30.02
-30.751
-31.484
-32.214
-32.94
-33.656
-34.361
-35.052
-35.727
-36.383
-37.02
-37.635
-38.228
-38.798
-39.344
-39.865
-40.361
-40.833
-41.279
-41.699
-42.095
-42.467
-42.815
-43.141
-43.444
-43.726
-43.988
-44.231
-44.456
-44.665
-44.859
-45.04
-45.209
-45.368
-45.519
-45.664
-45.804
-45.942
-46.078
-46.215
-46.354
-46.496
-46.642
-46.794
-46.951
-47.116
-47.288
-47.468
-47.656
-47.853
-48.058
-48.272
-48.494
-48.724
-48.961
-49.205
-49.455
-49.71
-49.969
-50.231
-50.494
-50.757
-51.017
-51.273
-51.523
-51.763
-51.991
-52.204
-52.399
-52.573
-52.722
-52.843
-52.932
-52.987
-53.005
-52.982
-52.915
-52.802
-52.639
-52.425
-52.158
-51.835
-51.455
-51.016
-50.517
-49.957
-49.335
-48.652
-47.907
-47.1
-46.232
-45.305
-44.32
-43.28
-42.186
-41.042
-39.852
-38.62
-37.351
-36.05
-34.723
-33.376
-32.015
-30.647
-29.279
-27.918
-26.572
-25.248
-23.953
-22.695
-21.479
-20.315
-19.207
-18.164
-17.19
-16.292
-15.475
-14.746
-14.107
-13.564
-13.121
-12.781
-12.545
-12.417
-12.398
-12.488
-12.686
-12.992
-13.404
-13.919
-14.534
-15.243
-16.041
-16.923
-17.881
-18.907
-19.994
-21.132
-22.313
-23.526
-24.762
-26.01
-27.26
-28.502
-29.725
-30.918
-32.072
-33.175
-34.218
-35.19
-36.083
-36.886
-37.591
-38.189
-38.673
-39.035
-39.268
-39.367
-39.325
-39.139
-38.805
-38.32
-37.681
-36.888
-35.941
-34.841
-33.589
-32.189
-30.643
-28.957
-27.135
-25.183
