Lead I
-27.80641174316406
-22.897485733032223
-18.21803855895996
-13.762681007385254
-9.522029876708984
-5.489373683929443
-1.6609663963317869
1.9677900075912476
5.402906417846679
8.649847984313963
11.713116645812988
14.592897415161133
17.285419464111328
19.793663024902344
22.12743759155273
24.300304412841793
26.328458786010742
28.223718643188477
29.992578506469727
31.643613815307617
33.18860244750976
34.6366958618164
35.99819564819335
37.27412033081055
38.45208740234375
39.53717041015624
40.55423355102539
41.54979705810547
42.59744644165039
43.75527572631835
45.049747467041016
46.507408142089844
48.15328598022461
49.97541427612305
51.939353942871094
53.95475006103515
55.86107635498046
57.536582946777344
58.89885711669921
59.89455795288086
60.53175735473633
60.811347961425774
60.701820373535156
60.16667175292968
59.12924575805663
57.48296356201172
55.17352676391601
52.134300231933594
48.27980041503906
43.67005538940429
38.42631530761719
32.757423400878906
27.117584228515625
21.970525741577145
17.62735366821289
14.295113563537596
11.896876335144043
10.0235013961792
8.312349319458008
6.573503494262695
4.554512023925781
1.8915786743164062
-1.6718906164169312
-6.073026657104492
-10.51895523071289
-13.432729721069334
-13.284313201904295
-9.417394638061523
-1.4583320617675781
11.631366729736328
30.742321014404293
55.9422378540039
84.18878173828125
108.92601013183592
124.05049133300781
126.8537368774414
121.83164978027344
115.87520599365233
111.57453918457031
104.99509429931639
78.82069396972655
13.799182891845701
-100.90677642822266
-267.88726806640625
-468.2475891113281
-670.8134765625
-845.6172485351562
-961.7181396484374
-1002.5339355468749
-970.0133056640625
-872.4863891601562
-727.6162719726562
-559.6236572265624
-386.0723571777344
-225.37782287597656
-98.22008514404295
-12.837409019470215
28.35779571533203
29.701250076293945
10.239686012268066
-12.759761810302733
-30.82248878479004
-38.346702575683594
-38.91362380981445
-42.04056549072265
-49.0701904296875
-59.669464111328125
-73.67586517333984
-84.18576049804688
-88.46364593505858
-87.03860473632812
-78.59684753417969
-66.12297058105469
-52.881690979003906
-39.98052597045898
-28.809417724609375
-19.486103057861328
-11.317218780517578
-4.106669902801514
2.3258256912231445
8.422654151916504
14.78317642211914
22.166236877441406
31.09188461303711
41.64269256591796
53.61860275268555
66.60953521728516
80.1802978515625
94.01708221435545
107.86471557617186
121.49961090087889
134.81631469726562
147.76666259765622
160.35430908203125
172.6817626953125
184.83566284179685
196.8403625488281
208.65051269531247
220.12408447265622
231.11886596679685
241.57153320312497
251.46350097656247
260.8279418945312
269.7453918457031
278.2568054199218
286.38775634765625
294.18518066406244
301.6621704101562
308.807861328125
315.5975341796875
321.95977783203125
327.80578613281244
333.07604980468744
337.7367858886718
341.77642822265625
345.1964111328125
347.98266601562494
350.1118774414062
351.561767578125
352.30715942382807
352.32925415039057
351.60748291015625
350.11163330078125
347.81787109374994
344.7142028808593
340.7991943359375
336.0863037109375
330.59844970703125
324.3556213378906
317.3799743652343
309.6990966796875
301.3406372070312
292.33502197265625
282.7147521972656
272.5109558105469
261.7564697265625
250.48976135253906
238.7537841796875
226.59455871582028
214.06147766113278
201.2047119140625
188.0748291015625
174.72328186035153
161.20179748535156
147.5610198974609
133.84991455078125
120.11713409423828
106.41133117675781
92.78177642822266
79.27838897705077
65.948974609375
52.8385124206543
39.98994827270508
27.44462013244629
15.240800857543945
3.4123396873474117
-8.011880874633789
-19.007946014404297
-29.553653717041012
-39.62775421142578
-49.21160125732422
-58.289680480957024
-66.84785461425781
-74.8722915649414
-82.34893798828125
-89.2633590698242
-95.60652160644531
-101.37711334228516
-106.57746124267577
-111.21383666992188
-115.2979736328125
-118.84414672851562
-121.87308502197264
-124.41326904296874
-126.48931884765624
-128.12115478515625
-129.32713317871094
-130.12130737304688
-130.5205841064453
-130.55047607421872
-130.23593139648438
-129.60055541992188
-128.6710510253906
-127.46925354003908
-126.02658081054688
-124.38702392578125
-122.57687377929689
-120.60848999023438
-118.47084045410156
-116.12153625488281
-113.53691101074217
-110.72217559814452
-107.67948913574219
-104.41603088378905
-100.96703338623047
-97.37841796875
-93.75141906738281
-90.25037384033202
-86.99687194824219
-84.08189392089842
-81.55728912353516
-79.41495513916016
-77.6658935546875
-76.32896423339844
-75.43077087402342
-75.03150939941406
-75.18765258789062
-75.93706512451172
-77.34567260742186
-79.47865295410155
-82.28722381591797
-85.66802215576172
-89.37901306152344
-93.03318786621094
-96.30641174316405
-98.83043670654295
-100.34973907470703
-100.85813140869139
-100.51235961914062
-99.6822509765625
-98.73466491699219
-97.81970977783203
-97.14390563964842
-97.20597076416016
-98.1932601928711
-99.79515838623047
-101.19833374023438
-100.93243408203124
-98.09727478027344
-92.47720336914062
-83.42628479003906
-69.95759582519531
-51.20098876953125
-29.022563934326172
-8.877947807312012
3.513964414596557
3.7525815963745113
-4.588730812072754
-11.213560104370117
-10.744218826293944
-2.9679770469665523
-3.0182361602783203
-38.341766357421875
-128.35362243652344
-283.406005859375
-487.00372314453125
-698.2916259765624
-875.1621093749999
-977.3854370117188
-994.5703125
-946.0387573242188
-858.1761474609374
-762.4998779296874
-668.905517578125
-566.4000244140625
-448.4997253417969
-314.86062622070307
-182.87228393554688
-81.3160400390625
-25.10733032226562
-11.744323730468748
-23.284784317016598
-37.62205505371094
-43.65364837646484
-42.313079833984375
-41.71962738037109
-47.31391143798828
-57.965389251708984
-69.38919067382812
-76.53172302246092
-77.53958892822266
-73.58039093017577
-66.23758697509764
-57.004188537597656
-47.171878814697266
-38.00555419921875
-30.375213623046875
-24.627979278564453
-20.64985656738281
-17.893669128417965
-15.77865695953369
-13.888104438781738
-11.603041648864746
-8.05988597869873
-2.76082444190979
4.520893096923828
13.836349487304688
24.874263763427734
37.33694839477539
50.948516845703125
65.23400115966797
79.7954635620117
94.41973114013672
108.95173645019531
123.36555480957031
137.7198944091797
151.9807891845703
166.1202239990234
180.1356201171875
193.91619873046875
207.3666229248047
220.41479492187497
232.94766235351562
244.92660522460938
256.36883544921875
267.31549072265625
277.87432861328125
288.1423950195312
298.1527404785156
307.91680908203125
317.4181518554687
326.60577392578125
335.43695068359375
343.85015869140625
351.75549316406244
359.09759521484375
365.83660888671875
371.93572998046875
377.379150390625
382.13928222656244
386.17315673828125
389.44018554687494
391.89245605468744
393.4775390625
394.155517578125
393.8928527832031
392.6604309082031
390.44415283203125
387.2384643554687
383.0474853515625
377.890380859375
371.78881835937494
364.7621154785156
356.83178710937494
348.02005004882807
338.3522644042968
327.8600769042969
316.5774841308594
304.53955078125
291.787109375
278.36669921875
264.32952880859375
249.73129272460938
234.62930297851562
219.0809173583984
203.14442443847653
186.87954711914062
170.34686279296875
153.6077880859375
136.7247772216797
119.75959777832031
102.77210235595703
85.82142639160155
68.96532440185547
52.25857925415039
35.7536392211914
19.498390197753906
3.535208225250244
-12.095661163330076
-27.354984283447266
-42.20697021484375
-56.61912536621094
-70.56107330322266
-84.00527954101562
-96.92320251464844
-109.2851333618164
-121.06676483154295
-132.25073242187497
-142.82521057128903
-152.7824249267578
-162.11917114257812
-170.836669921875
-178.94334411621094
-186.45729064941406
-193.39816284179685
-199.7830810546875
-205.62664794921872
-210.94139099121094
-215.7432708740234
-220.05316162109372
-223.89566040039062
-227.2953948974609
-230.27694702148435
-232.8642425537109
-235.08834838867185
-236.9926300048828
-238.60997009277344
-239.96072387695312
-241.04592895507812
-241.8357696533203
-242.3111572265625
-242.4776916503906
-242.345458984375
-241.92613220214844
-241.24217224121094
-240.33358764648438
-239.28192138671872
-238.23327636718747
-237.3334503173828
-236.6876983642578
-236.36141967773435
-236.36781311035156
-236.73184204101562
-237.4944152832031
-238.69270324707028
-240.37982177734375
-242.57089233398438
-245.26806640625
-248.51751708984372
-252.38583374023435
-256.8834533691406
-261.9189453125
-267.27789306640625
-272.5892333984375
-277.51116943359375
-281.75537109375
-284.9805908203125
-287.00848388671875
-287.8194885253906
-287.59295654296875
-286.8031005859375
-285.9134826660156
-285.2449645996094
-285.23126220703125
-286.44317626953125
-289.0359497070312
-292.70147705078125
-296.5423583984375
-299.01971435546875
-299.15423583984375
-296.2875671386719
-289.14239501953125
-276.4247741699219
-257.6070556640625
-234.9598388671875
-213.7759857177734
-199.46958923339844
-195.17825317382812
-197.97271728515625
-202.736572265625
-208.67657470703125
-220.05494689941403
-251.32099914550778
-318.25918579101557
-429.8890380859375
-587.6759033203125
-772.9135131835936
-958.5880126953125
-1114.4473876953125
-1209.255126953125
-1236.6823730468748
-1201.80517578125
-1119.29833984375
-1016.6058959960938
-903.5390014648438
-787.720703125
-679.3128662109375
-578.140869140625
-494.8134460449219
-436.22271728515625
-396.06396484375
-371.6910705566406
-355.2079467773437
-341.21435546875
-334.774169921875
-337.7414245605468
-349.94439697265625
-369.1666870117187
-388.6381225585937
-404.0458068847656
-414.6161499023437
-420.427978515625
-421.96435546874994
-419.2166442871094
-412.15362548828125
-401.37133789062494
-387.97357177734375
-372.7616882324218
-355.3506164550781
-335.3523254394531
-313.33111572265625
-290.3689575195312
-267.3510437011718
-244.81356811523435
-222.87489318847653
-201.7762756347656
-182.47720336914062
-165.67205810546875
-151.20541381835938
-138.3520812988281
-126.41046142578124
-115.01006317138672
-104.04895019531249
-93.4198760986328
-82.68479919433594
-71.4654083251953
-59.77457427978515
-47.94241333007812
-36.311981201171875
-25.029987335205078
-14.085362434387207
-3.3952364921569824
7.020973205566406
17.076066970825195
26.75064086914062
36.09547424316406
45.17474365234375
54.01220703125
62.56806945800781
70.74928283691406
78.47470092773438
85.70057678222656
92.39672088623045
98.54396057128906
104.1172103881836
109.07907104492188
113.40335083007812
117.07568359374999
120.08445739746092
122.42286682128905
124.0860824584961
125.06771850585936
125.36503601074219
124.98179626464842
123.92240142822267
122.19405364990234
119.80760192871094
116.77079772949219
113.08956909179686
108.77054595947264
103.82335662841795
98.2628936767578
92.10942840576172
85.38703155517578
78.12139892578125
70.34181213378906
62.081069946289055
53.374420166015625
44.25994110107422
34.77745056152344
24.967397689819336
14.871788024902342
4.534189224243164
-6.001946449279784
-16.692317962646484
-27.492069244384766
-38.35755920410156
-49.24504089355468
-60.110565185546875
-70.91089630126953
-81.60247802734375
-92.14239501953125
-102.4904556274414
-112.60787963867186
-122.45750427246094
-132.00613403320312
-141.22344970703125
-150.08299255371094
-158.562744140625
-166.6412353515625
-174.2976531982422
-181.51454162597653
-188.27694702148438
-194.57009887695312
-200.3803558349609
-205.69303894042966
-210.49276733398435
-214.77088928222656
-218.52554321289062
-221.75752258300778
-224.4705352783203
-226.6737060546875
-228.37863159179688
-229.60267639160156
-230.37176513671872
-230.70709228515625
-230.6254425048828
-230.14418029785153
-229.27836608886716
-228.04357910156247
-226.4623565673828
-224.5574493408203
-222.3475646972656
-219.85983276367185
-217.12109375
-214.160888671875
-211.02186584472656
-207.7314453125
-204.30194091796875
-200.73336791992185
-196.99929809570312
-193.07986450195312
-188.97991943359375
-184.69973754882812
-180.23561096191406
-175.61799621582028
-170.89349365234375
-166.15081787109375
-161.54655456542966
-157.19537353515622
-153.17062377929688
-149.53515624999997
-146.30078125
-143.48544311523438
-141.1210479736328
-139.20565795898438
-137.753173828125
-136.80744934082028
-136.4022216796875
-136.62091064453125
-137.5583953857422
-139.1755218505859
-141.3731689453125
-143.94580078125
-146.5158996582031
-148.82641601562497
-150.6103973388672
-151.4585418701172
-151.249267578125
-150.05982971191406
-148.0684814453125
-145.83016967773438
-143.79794311523438
-142.02420043945312
-140.92361450195312
-141.09877014160153
-142.3326416015625
-144.1318817138672
-145.70111083984375
-145.57910156249997
-142.98934936523435
-137.6104583740234
-128.09718322753903
-112.79843139648438
-93.42304992675781
-74.2492446899414
-59.03866958618164
-52.60231018066406
-52.68400573730469
-49.94630432128906
-43.673057556152344
-36.378292083740234
-37.49464416503906
-70.01415252685547
-144.16744995117188
-262.43768310546875
-423.14544677734375
-600.694580078125
-771.0737915039062
-910.7684326171875
-988.6725463867188
-998.2064208984374
-940.4426879882812
-822.6167602539062
-674.8746337890625
-517.9733276367188
-372.42956542968744
-263.0387878417968
-191.41436767578125
-155.53582763671875
-147.70803833007812
-146.61492919921875
-144.07716369628906
-139.36900329589844
-133.2710418701172
-134.39105224609375
-144.7828674316406
-159.15533447265625
-173.0443115234375
-181.33468627929685
-181.41104125976562
-174.3416595458984
-161.671875
-144.8323516845703
-125.5139389038086
-105.6451644897461
-86.5003890991211
-68.79253387451172
-52.899192810058594
-38.49221038818359
-25.168350219726562
-12.716287612915037
-0.6413984298706055
11.703313827514648
24.645647048950195
38.31192016601562
52.65977478027344
67.40316772460936
82.32841491699217
97.32296752929688
112.19783782958984
126.76301574707033
140.92440795898438
154.6467590332031
167.9576873779297
180.9335174560547
193.6186065673828
206.02912902832028
218.19213867187497
230.13769531249997
241.88153076171875
253.42573547363278
264.7564697265625
275.8518981933593
286.6942749023437
297.26824951171875
307.5581970214843
317.5429382324219
327.1947021484375
336.48229980468744
345.3727111816406
353.83032226562494
361.81790161132807
369.2974853515625
376.22943115234375
382.574462890625
388.2980346679687
393.36999511718744
397.7633972167969
401.45489501953125
404.4243774414062
406.6541748046875
408.13092041015625
408.8452453613281
408.7874145507812
407.9483642578125
406.3211364746094
403.9015197753906
400.68927001953125
396.6886596679687
391.9069519042968
386.3551025390625
380.04919433593744
373.0100402832031
365.26226806640625
356.8345031738281
347.7578125
338.0667419433594
327.79986572265625
316.9988098144531
305.7076110839844
293.97302246093744
281.8431396484375
269.36761474609375
256.5982971191406
243.58685302734372
230.3842010498047
217.0413665771484
203.6086273193359
190.13612365722656
176.6754150390625
163.27749633789062
149.99113464355466
136.86386108398438
123.94053649902344
111.26254272460938
98.869140625
86.79550170898438
75.07167053222656
63.72520446777343
52.78117370605468
42.26171112060547
32.18751907348632
22.578645706176754
13.45286178588867
4.828601360321045
-3.2754969596862793
-10.846214294433594
-17.874797821044922
-24.35696792602539
-30.294750213623043
-35.694839477539055
-40.566795349121094
-44.92790985107421
-48.80228424072265
-52.213401794433594
-55.186485290527344
-57.743492126464844
-59.89940643310546
-61.672317504882805
-63.084999084472656
-64.15994262695311
-64.92294311523438
-65.39987945556639
-65.60694885253906
-65.5684356689453
-65.32240295410156
-64.8952407836914
-64.30723571777344
-63.56072235107421
-62.62103652954101
-61.46172332763672
-60.07948303222656
-58.47244644165039
-56.65192413330078
-54.64052200317383
-52.456642150878906
-50.164939880371094
-47.88994598388672
-45.76116943359375
-43.91627120971679
-42.453495025634766
-41.390998840332024
-40.7571792602539
-40.59412384033203
-40.93003845214844
-41.8425407409668
-43.37431716918945
-45.49217224121094
-48.219364166259766
-51.59503173828125
-55.600196838378906
-60.19340515136719
-65.201416015625
-70.26931762695312
-75.06246948242188
-79.22620391845703
-82.33213806152344
-84.17976379394531
-84.74449157714844
-84.14483642578124
-82.82063293457031
-81.16444396972655
-79.34239959716797
-77.73580169677734
-76.95268249511719
-77.18853759765625
-78.1455078125
-78.85730743408203
-77.61697387695311
-73.27566528320312
-65.45207977294922
-53.572669982910156
-36.64608764648437
-13.875043869018555
12.787954330444336
38.00509262084961
55.58382415771484
59.93162536621094
52.958499908447266
43.21044158935547
34.199920654296875
25.685049057006836
6.155272483825683
-47.224365234375
-147.82742309570312
-300.1112670898437
-493.0437622070312
-697.02783203125
-881.3372802734374
-1018.9201660156251
-1094.032470703125
-1103.3004150390623
-1053.057861328125
-953.0606689453125
-810.4369506835936
-640.6926879882812
-460.41687011718744
-291.1399536132812
-161.28277587890625
-81.07743835449219
-48.838287353515625
-50.55760192871093
-58.814964294433594
-60.230735778808594
-52.6870994567871
-39.95338439941406
-33.72035598754883
-36.90481567382812
-44.67491149902344
-52.604595184326165
-55.465156555175774
-51.59654235839843
-43.089839935302734
-31.707956314086914
-18.81376838684082
-5.920336723327637
5.764183521270752
15.599604606628418
23.305953979492184
29.025474548339844
33.31852722167969
36.746315002441406
39.76287078857422
43.12353515625
47.75698471069336
54.185806274414055
62.62189102172851
73.07717895507812
85.33881378173827
99.18463134765625
114.42486572265624
130.66854858398438
147.36288452148438
164.14909362792966
180.81706237792966
197.26516723632812
213.53831481933594
229.606201171875
245.36326599121097
260.7395935058594
275.6607360839844
290.04931640625
303.8560485839844
317.0019836425781
329.3863525390625
340.98120117187494
351.8040466308594
361.9281921386719
371.49969482421875
380.6057739257812
389.27252197265625
397.51336669921875
405.3051452636719
412.6202697753906
419.4423217773437
425.7257080078125
431.40313720703125
436.4306640625
440.77752685546875
444.42523193359375
447.3747253417968
449.6112365722656
451.1065368652343
451.8305358886718
451.74365234375
450.8140869140625
449.0240173339844
446.358642578125
442.81082153320307
438.3857421875
433.0953674316406
426.96405029296875
420.0309143066406
412.33306884765625
403.9042358398437
394.78082275390625
384.9964294433594
374.58666992187494
363.59271240234375
352.05615234375
340.01892089843744
327.5288696289062
314.6380310058593
301.39971923828125
287.87078857421875
274.10766601562494
260.1650085449219
246.09811401367188
231.961181640625
217.80560302734375
203.6827392578125
189.64370727539062
175.7387237548828
162.01870727539062
148.53271484375
135.32566833496094
122.44047546386717
109.91752624511719
97.791748046875
86.0943374633789
74.85199737548828
64.08509826660155
53.81218719482422
44.05081558227539
34.81425857543945
26.113697052001953
17.961366653442383
10.36765384674072
3.3430831432342525
-3.1011714935302734
-8.961177825927734
-14.239434242248533
-18.9405403137207
-23.073101043701172
-26.650279998779297
-29.68794250488281
-32.209590911865234
-34.2451171875
-35.8193473815918
-36.95373535156249
-37.66717529296875
-37.9755859375
-37.901023864746094
-37.470706939697266
-36.709815979003906
-35.64181900024414
-34.2896728515625
-32.67195129394531
-30.816221237182617
-28.76150131225586
-26.527914047241207
-24.117248535156246
-21.507061004638672
-18.644014358520508
-15.492147445678711
-12.046290397644043
-8.300883293151855
-4.253981113433837
0.0658257007598877
4.612568855285644
9.288532257080078
13.929645538330078
18.40515899658203
22.623729705810547
26.525190353393555
30.113910675048828
33.39242172241211
36.32783889770508
38.87250518798828
40.93402099609375
42.39723205566406
43.19941329956055
43.286865234375
42.595672607421875
41.16905975341796
39.11946868896484
36.650230407714844
34.20875549316406
32.305381774902344
31.29452896118164
31.35924339294434
32.37989807128906
33.954261779785156
35.733745574951165
37.548065185546875
39.12770080566406
40.018802642822266
39.93523406982422
39.00402069091797
38.18496322631836
39.08715057373047
43.05337142944336
51.09236907958984
64.03917694091795
82.84011840820312
108.5495147705078
139.35098266601562
170.1177825927734
196.22689819335938
212.93263244628906
221.3865203857422
229.2694091796875
236.36946105957028
239.88909912109372
230.45379638671872
186.4007110595703
99.8530044555664
-31.701652526855465
-207.17880249023438
-401.51654052734375
-592.9345703125
-756.4486083984375
-854.7355346679686
-874.3780517578124
-810.8107299804686
-672.211181640625
-497.2832336425781
-318.5567626953125
-164.13551330566403
-55.14275360107422
14.838848114013672
57.908828735351555
87.98817443847656
118.48274993896483
149.29458618164062
174.82144165039062
188.18994140625
184.87561035156247
167.01876831054688
140.70843505859375
113.45272827148438
90.68533325195312
74.36882019042969
64.68828582763672
60.861839294433594
62.09844970703124
67.93183135986327
77.2489547729492
88.24322509765624
99.02151489257811
108.36580657958984
115.90575408935547
121.74430847167969
126.30959320068361
130.04086303710935
133.4318084716797
137.2932891845703
142.46881103515625
149.41360473632812
158.17593383789062
168.51560974121094
179.96864318847653
192.07015991210938
204.4925994873047
216.94467163085935
229.20330810546875
241.17672729492188
252.84251403808594
264.2431335449219
275.4617614746093
286.5613708496094
297.52850341796875
308.26788330078125
318.6646423339844
328.61529541015625
338.0707702636719
347.03857421875
355.5689392089844
363.7471618652344
371.6452331542969
379.3212585449219
386.807373046875
394.1015930175781
401.1799011230468
407.994873046875
414.47998046874994
420.5546264648437
426.1580200195312
431.25915527343744
435.84167480468744
439.8983764648437
443.4136352539062
446.36102294921875
448.7076721191406
450.41888427734375
451.46185302734375
451.79949951171875
451.3974609375
450.22827148437494
448.2721252441406
445.52166748046875
441.9822998046875
437.66738891601557
432.5907897949219
426.76849365234375
420.2173767089843
412.9539184570312
404.99819946289057
396.370849609375
387.0914916992187
377.18218994140625
366.66937255859375
355.5838317871094
343.9609375
331.83978271484375
319.2607116699219
306.265625
292.89788818359375
279.2003479003906
265.215576171875
250.98500061035156
236.54809570312497
221.94396972656247
207.21240234375
192.39337158203125
177.52789306640625
162.65638732910156
147.81739807128906
133.04965209960935
118.3911895751953
103.87684631347655
89.53814697265625
75.40196990966797
61.490108489990234
47.82377243041992
34.42409133911132
21.308900833129883
8.494046211242676
-4.003684997558594
-16.167072296142575
-27.975784301757812
-39.40637969970703
-50.44078063964844
-61.06734466552734
-71.27619171142577
-81.06011962890624
-90.41700744628905
-99.34590911865234
-107.85177612304688
-115.94767761230467
-123.6400146484375
-130.9300079345703
-137.81854248046875
-144.3009033203125
-150.37472534179688
-156.04476928710938
-161.31072998046875
-166.1714630126953
-170.63638305664062
-174.71250915527344
-178.41534423828125
-181.77804565429688
-184.80567932128903
-187.48876953124997
-189.8275604248047
-191.78964233398435
-193.3507080078125
-194.5193328857422
-195.27066040039062
-195.5703887939453
-195.4652099609375
-195.01992797851562
-194.27059936523435
-193.32855224609372
-192.27072143554685
-191.11828613281247
-189.96575927734375
-188.89419555664062
-187.87115478515625
-186.84790039062497
-186.03735351562497
-185.71147155761716
-185.772216796875
-186.26841735839844
-187.32638549804688
-188.5162353515625
-191.25245666503906
-196.8196105957031
-203.0113525390625
-208.86958312988278
-210.4897918701172
-203.2974853515625
-191.84823608398438
-179.22937011718747
-170.2779388427734
-171.83273315429688
-178.60002136230466
-186.11413574218747
-191.16622924804688
-188.4337463378906
-182.3494873046875
-177.09156799316403
-173.4366302490234
-173.141845703125
-173.44102478027344
-171.8007354736328
-168.0677947998047
-160.85726928710935
-149.28662109375
-133.1420745849609
-114.02510833740234
-97.10613250732422
-87.59817504882812
-87.54461669921875
-93.17770385742188
-96.52633666992188
-93.9549560546875
-91.80348205566406
-107.5981674194336
-163.53042602539062
-274.3421630859375
-436.2094421386719
-624.1417846679688
-802.3782958984375
-934.9334716796875
-1000.8905029296874
-1001.908203125
-951.3006591796875
-867.2755126953125
-763.0241699218749
-642.8216552734375
-511.98477172851557
-383.38052368164057
-277.5718078613281
-211.8757781982422
-192.94653320312497
-210.55105590820312
-240.52551269531247
-265.8377380371093
-278.6605224609375
-280.83990478515625
-283.7079467773437
-291.26202392578125
-301.5232238769531
-311.5356750488281
-315.81884765625
-312.79302978515625
-304.5859985351562
-292.83251953125
-279.4065856933594
-266.2058410644531
-253.8986053466797
-242.841552734375
-233.38642883300778
-225.18353271484372
-217.72460937499997
-210.7020263671875
-203.68089294433594
-196.16525268554688
-187.9497833251953
-178.97772216796875
-169.26150512695312
-159.0241241455078
-148.46844482421872
-137.7117919921875
-126.93321990966797
-116.30712890625
-105.91163635253906
-95.7716064453125
-85.86373138427733
-76.12527465820311
-66.51853942871094
-57.02772903442383
-47.62379837036133
-38.27012252807617
-28.94550895690918
-19.6458797454834
-10.384340286254883
-1.1832882165908813
7.939007759094238
16.967533111572266
25.88799285888672
34.68050765991211
43.31780242919922
51.76911926269531
60.000869750976555
67.9771957397461
75.66033172607422
83.0106430053711
89.98538970947264
96.54084014892578
102.63827514648438
108.24398040771484
113.32785034179688
117.86338806152344
121.8265380859375
125.19541931152342
127.95233917236328
130.08355712890622
131.57545471191406
132.4147186279297
132.5901947021484
132.0941162109375
130.9234619140625
129.0797119140625
126.56809997558594
123.39764404296875
119.58222198486328
115.14080810546875
110.0962677001953
104.47384643554688
98.30181884765625
91.61186218261719
84.43913269042969
76.82270812988281
68.8044662475586
60.428138732910156
51.73946762084961
42.7858772277832
33.61561203002929
24.27701759338379
14.817449569702148
5.282788276672362
-4.282340049743652
-13.834417343139648
-23.329662322998043
-32.72415924072265
-41.97538757324219
-51.04238510131836
-59.88661956787109
-68.47281646728516
-76.76864624023438
-84.74532318115233
-92.37955474853516
-99.65345764160155
-106.55233001708983
-113.06402587890625
-119.17916107177734
-124.89044189453125
-130.19183349609375
-135.07913208007812
-139.54705810546875
-143.58929443359375
-147.2044982910156
-150.39718627929688
-153.17562866210938
-155.55299377441406
-157.546142578125
-159.1735076904297
-160.4612579345703
-161.44250488281247
-162.1490478515625
-162.61090087890625
-162.85232543945312
-162.89068603515622
-162.74514770507812
-162.43746948242185
-161.98843383789062
-161.41950988769528
-160.74794006347656
-159.98472595214844
-159.15298461914062
-158.2852630615234
-157.40496826171875
-156.53131103515625
-155.6544952392578
-154.7295379638672
-153.72323608398438
-152.61557006835938
-151.38807678222656
-150.03866577148438
-148.57040405273438
-146.9871826171875
-145.35008239746094
-143.77392578124997
-142.38191223144528
-141.30755615234375
-140.62873840332028
-140.35620117187497
-140.50250244140625
-141.06747436523435
-142.06953430175778
-143.56860351562497
-145.5902099609375
-148.13655090332028
-151.22991943359375
-154.8754425048828
-159.0570068359375
-163.73159790039062
-168.70091247558594
-173.65194702148438
-178.2107391357422
-181.90560913085935
-184.42250061035153
-185.660400390625
-185.66867065429688
-184.75637817382812
-183.29817199707028
-181.489990234375
-179.56715393066406
-177.88745117187497
-176.61322021484375
-175.66479492187497
-174.41134643554685
-171.51121520996094
-165.61311340332028
-156.00071716308594
-142.67431640625
-125.72126770019531
-104.94333648681639
-80.41341400146484
-53.457569122314446
-28.253948211669922
-11.276420593261717
-7.86768913269043
-19.687591552734375
-42.24913787841797
-68.61998748779297
-94.45381164550781
-120.91514587402344
-161.24664306640622
-230.49282836914062
-339.6208190917968
-493.02587890625
-671.7955322265625
-847.5029907226562
-989.7241821289061
-1067.5009765625
-1074.1046142578123
-1018.2999267578125
-915.126953125
-787.3986206054688
-649.0652465820312
-507.55609130859375
-374.31555175781244
-261.95205688476557
-180.25312805175778
-135.33920288085935
-121.4876708984375
-121.22430419921874
-122.349365234375
-118.84439086914062
-111.54953002929688
-109.65025329589844
-116.53132629394531
-129.4991455078125
-144.40704345703125
-155.55984497070312
-160.76724243164062
-161.06707763671872
-157.43658447265625
-150.7623291015625
-141.88369750976562
-131.77029418945312
-121.88977813720703
-113.30308532714844
-106.24757385253906
-100.52144622802734
-95.65172576904297
-91.2805709838867
-87.08833312988281
-82.45703125
-76.65304565429688
-69.20994567871094
-60.04526138305663
-49.38528442382812
-37.686614990234375
-25.42182159423828
-12.927834510803223
-0.48577129840850825
11.684841156005858
23.47210693359375
34.82885742187499
45.77385711669921
56.37484359741211
66.70033264160155
76.75296783447266
86.45082092285156
95.6871109008789
104.36138916015625
112.42839813232422
119.90437316894531
126.8532943725586
133.37828063964844
139.56840515136716
145.49713134765625
151.2138214111328
156.73559570312497
162.057861328125
167.1522979736328
171.96791076660153
176.43504333496094
180.5031280517578
184.15216064453125
187.37803649902344
190.18679809570312
192.5750732421875
194.52807617187497
196.02503967285153
197.04260253906247
197.5591278076172
197.54864501953125
196.986328125
195.85397338867188
194.1419982910156
191.85159301757812
188.99546813964844
185.5946807861328
181.66952514648438
177.24124145507812
172.331298828125
166.95912170410153
161.14593505859375
154.91436767578122
148.28659057617188
141.28582763671872
133.939697265625
126.27918243408203
118.33869934082031
110.15603637695312
101.76928710937499
93.216796875
84.53742218017578
75.76882934570312
66.9474639892578
58.10836029052734
49.284629821777344
40.50971221923828
31.817615509033203
23.241168975830075
14.81262969970703
6.562871932983398
-1.4797122478485107
-9.288150787353516
-16.837848663330075
-24.10943603515625
-31.08786010742187
-37.760322570800774
-44.11671829223633
-50.14875793457031
-55.849327087402344
-61.21263122558593
-66.23287200927734
-70.90162658691406
-75.20874786376953
-79.14663696289062
-82.71145629882812
-85.90338134765625
-88.72679138183594
-91.19003295898438
-93.3047103881836
-95.08795166015625
-96.56260681152344
-97.75120544433594
-98.67435455322264
-99.34757232666016
-99.7807846069336
-99.98365020751952
-99.9676513671875
-99.74615478515624
-99.33398437499999
-98.74604034423828
-97.99341583251952
-97.09471130371094
-96.0776596069336
-94.95965576171874
-93.75167083740234
-92.44381713867186
-90.99455261230469
-89.37093353271484
-87.55517578125
-85.53031158447264
-83.29389953613281
-80.855224609375
-78.22415161132812
-75.46053314208984
-72.67625427246094
-69.98057556152344
-67.49171447753906
-65.28803253173828
-63.382469177246094
-61.80473327636719
-60.58197784423828
-59.7286148071289
-59.29812622070312
-59.30670166015624
-59.72966003417969
-60.60574722290039
-61.97372817993163
-63.8191909790039
-66.12151336669922
-68.71989440917969
-71.31112670898438
-73.64566040039062
-75.40043640136719
-76.19219970703125
-75.81756591796875
-74.14336395263672
-71.2116928100586
-67.38467407226562
-62.98790740966797
-58.23168945312499
-53.53670883178711
-49.423423767089844
-46.1749382019043
-43.873924255371094
-41.86547470092773
-38.91453552246094
-34.25935363769531
-27.172353744506836
-16.64671516418457
-1.6099615097045898
19.152870178222656
44.17275238037109
68.2251968383789
86.11741638183592
93.39117431640624
92.65249633789062
93.53788757324217
100.10278320312499
111.89401245117188
114.39707183837889
79.74272155761719
-9.670059204101562
-163.51600646972656
-370.21759033203125
-591.7445068359374
-792.2236328125
-936.0665283203125
-999.8927001953124
-988.9290771484375
-913.0478515624999
-788.0003051757812
-638.3934936523438
-477.01153564453125
-320.36160278320307
-191.1266174316406
-96.34076690673827
-40.192668914794915
-17.67310333251953
-7.608893871307372
1.3179723024368284
12.975382804870605
26.7553653717041
32.63982009887695
26.778846740722656
12.970348358154297
-3.6392822265625
-16.49440002441406
-22.563745498657227
-22.611759185791016
-17.922910690307614
-10.008442878723145
0.11079120635986328
11.37228012084961
22.12584686279297
31.33388900756836
38.61682891845703
44.0331802368164
48.11844253540039
51.395915985107415
54.27104187011719
57.44160461425781
61.82038497924804
67.93911743164062
76.03918457031249
86.13821411132812
97.91384887695311
111.07235717773436
125.3123092651367
140.14256286621094
155.159912109375
170.13807678222656
184.92204284667966
199.49078369140622
213.89688110351562
228.10690307617188
242.0998840332031
255.87826538085935
269.34014892578125
282.39263916015625
294.95751953125
306.9212646484375
318.2456970214844
328.94696044921875
339.0691223144531
348.72216796875
358.0037536621094
366.9544677734375
375.59674072265625
383.9239501953125
391.89727783203125
399.4866027832031
406.6409912109375
413.28253173828125
419.3687744140625
424.8731384277344
429.7731628417968
434.06829833984375
437.7463684082031
440.78045654296875
443.14666748046875
444.81390380859375
445.7460327148437
445.9181823730469
445.3111267089843
443.909423828125
441.7120361328125
438.7256469726562
434.9654846191406
430.4608764648437
425.2430114746094
419.3403015136719
412.7825927734375
405.59857177734375
397.81817626953125
389.4766235351562
380.610107421875
371.2547912597656
361.45108032226557
351.24322509765625
340.67816162109375
329.80645751953125
318.6793518066406
307.346435546875
295.8573913574219
284.26123046875
272.60546875
260.9376831054687
249.3053283691406
237.75485229492185
226.33177185058594
215.07952880859375
204.038818359375
193.24832153320312
182.74403381347656
172.55746459960938
162.7153625488281
153.23995971679688
144.15017700195312
135.4634552001953
127.19456481933594
119.35450744628906
111.95256042480469
104.99816894531249
98.50122070312499
92.47225952148438
86.91771697998047
81.8367462158203
77.22525024414061
73.07713317871092
69.38235473632811
66.12776947021484
63.29345703124999
60.850765228271484
58.771629333496094
57.03278732299804
55.61351013183594
54.49575424194335
53.659454345703125
53.07807540893555
52.725234985351555
52.578514099121094
52.616809844970696
52.82196426391601
53.168113708496094
53.6180305480957
54.14398574829101
54.732566833496094
55.395198822021484
56.17163085937499
57.09230422973633
58.16572570800781
59.394561767578125
60.78227233886719
62.32310485839843
63.992969512939446
65.72091674804688
67.3714370727539
68.80540466308594
69.9153060913086
70.638916015625
70.96077728271483
70.8641357421875
70.3277816772461
69.30941772460938
67.7525405883789
65.62252044677734
62.88230514526367
59.496620178222656
55.42559051513671
50.66629028320312
45.3149185180664
39.588584899902344
33.82234573364258
28.41525268554687
23.808130264282227
20.277545928955078
17.889314651489254
16.539228439331055
15.791664123535156
15.215648651123045
14.64013957977295
13.79000663757324
12.143802642822264
9.493810653686523
6.143152236938476
2.944673538208008
1.7397096157073972
4.1401071548461905
10.447044372558592
21.016952514648438
36.87985610961914
58.550483703613274
85.56226348876953
114.61753845214844
138.7323760986328
151.4317626953125
150.22676086425778
138.7422180175781
122.76222229003905
106.20628356933594
87.81124877929688
53.26841735839844
-12.706748962402342
-121.91393280029297
-281.0427551269531
-470.9092407226562
-660.6744384765624
-816.0036010742188
-900.5872802734375
-905.3321533203125
-840.7381591796875
-725.7590942382812
-587.892333984375
-444.2085876464843
-303.23196411132807
-176.734130859375
-76.86994934082031
-12.239427566528319
13.012313842773438
7.597928047180175
-8.858027458190916
-23.989246368408203
-32.606563568115234
-36.216148376464844
-43.92818450927734
-57.81548309326172
-73.7156982421875
-87.73519897460938
-95.04934692382811
-94.12281799316405
-86.79390716552734
-74.58039855957031
-58.74977111816406
-41.01654052734374
-23.07467269897461
-6.007551193237304
9.544960021972656
23.528289794921875
36.40332794189453
48.479053497314446
59.90081787109374
71.0766372680664
82.49517059326172
94.38664245605467
106.82400512695312
119.65528869628906
132.59570312499997
145.51681518554688
158.25375366210935
170.56373596191406
182.5497589111328
194.42807006835938
206.03671264648438
217.44094848632812
228.78211975097653
239.56552124023438
251.31271362304685
265.5101623535156
280.1112670898437
294.4896545410156
304.8640441894531
306.6942138671875
304.96511840820307
302.9975891113281
305.73809814453125
319.984375
339.6792907714844
359.67950439453125
376.45025634765625
384.16888427734375
386.9354553222656
388.9063415527343
390.97305297851557
395.65161132812494
401.4288024902344
406.37158203125
410.8206481933593
414.51330566406244
417.55731201171875
420.3207092285156
422.5361328125
423.98980712890625
424.73638916015625
424.7779235839843
424.07827758789057
422.63287353515625
420.45166015625
417.5426330566406
413.94732666015625
409.71704101562494
404.84503173828125
399.32998657226557
393.19952392578125
386.4763793945312
379.18786621093744
371.36517333984375
363.0323486328125
354.21649169921875
344.95654296875
335.2933044433594
325.2678833007812
314.9236450195312
304.3031005859375
293.44946289062494
282.40704345703125
271.2190551757812
259.9270935058594
248.57092285156247
237.18804931640622
225.81629943847656
214.4938049316406
203.2591552734375
192.1515350341797
181.20765686035156
170.46199035644528
159.9481048583984
149.6972198486328
139.73675537109375
130.08999633789062
120.77476501464844
111.80424499511719
103.1915512084961
94.94908142089842
87.0864028930664
79.61136627197266
72.53104400634766
65.85236358642578
59.58435821533203
53.736427307128906
48.3115234375
43.30659484863281
38.71587371826172
34.53082275390625
30.740293502807617
27.330009460449215
24.277873992919922
21.555805206298828
19.14066505432129
17.014558792114258
15.163810729980467
13.578712463378904
12.245515823364258
11.145553588867188
10.261751174926758
9.579623222351074
9.084081649780273
8.760945320129395
8.585384368896484
8.51937484741211
8.54013919830322
8.644326210021973
8.85551929473877
9.226344108581541
9.790865898132322
10.5546293258667
11.523174285888672
12.698354721069336
14.055142402648924
15.549194335937498
17.076351165771484
18.465831756591797
19.58952713012695
20.359394073486325
20.7242488861084
20.702882766723633
20.299823760986328
19.486434936523434
18.233022689819336
16.46881866455078
14.103425025939941
11.106685638427734
7.43933629989624
3.0405266284942627
-2.0142800807952876
-7.592053413391113
-13.47193908691406
-19.1882381439209
-24.290206909179688
-28.506011962890625
-31.68142318725586
-33.937820434570305
-35.67195892333984
-37.19126510620117
-38.631996154785156
-40.21579360961913
-42.23744201660156
-44.85189819335937
-47.967281341552734
-50.822410583496094
-52.01695251464843
-50.368728637695305
-45.49053955078125
-37.27496337890625
-25.175495147705075
-8.744771957397461
11.869545936584473
34.03118133544922
52.29690170288085
61.543651580810554
59.43935394287109
49.11097335815429
35.7016716003418
22.184980392456055
6.164126396179198
-25.131860733032227
-85.0173873901367
-183.43705749511716
-323.5858459472656
-488.4962768554687
-654.7066650390625
-794.6035766601562
-877.7295532226562
-895.885009765625
-852.7051391601562
-762.775634765625
-656.3143920898438
-550.9763793945312
-455.09765625
-371.92913818359375
-292.7752990722656
-215.16436767578122
-144.21807861328125
-84.43504333496094
-41.4652214050293
-16.907075881958008
-7.0264902114868155
-7.67745304107666
-15.486654281616211
-27.166637420654293
-39.286346435546875
-49.06561279296874
-54.746864318847656
-55.90248870849609
-53.55001449584961
-48.45572280883789
-40.80513381958008
-31.240663528442383
-20.874214172363278
-10.797155380249023
-1.850379228591919
6.129828453063965
14.03114604949951
21.85859680175781
29.406932830810543
36.867557525634766
44.40511322021484
52.467231750488274
61.59587097167969
71.54834747314452
81.75201416015624
92.36593627929686
103.43671417236327
114.74298095703124
126.28440856933594
137.8124084472656
149.0487060546875
160.17724609375
171.40917968749997
182.58859252929688
193.64808654785156
204.5584564208984
215.1809844970703
225.53222656249997
235.57229614257812
245.12359619140622
254.09783935546875
262.5053100585937
270.3957214355469
277.8876953125
285.0717468261718
291.956787109375
298.57012939453125
304.9248046875
311.0037841796875
316.79864501953125
322.2570495605469
327.2952880859375
331.8605651855469
335.92218017578125
339.4669189453125
342.4984130859375
345.0046081542969
346.96295166015625
348.35284423828125
349.14776611328125
349.32525634765625
348.8638305664062
347.73089599609375
345.8999938964844
343.357666015625
340.09429931640625
336.11474609375
331.4358215332031
326.07031249999994
320.0350036621093
313.3536682128906
306.0488891601562
298.1460266113281
289.6739807128906
280.6592407226562
271.1294250488281
261.1185302734375
250.66424560546875
239.80746459960935
228.5928802490234
217.06549072265622
205.27120971679685
193.2572479248047
181.071044921875
168.7591552734375
156.36585998535156
143.9336700439453
131.5037078857422
119.1160659790039
106.81036376953125
94.62559509277344
82.59935760498047
70.76821899414062
59.168697357177734
47.83586883544922
36.80274963378906
26.09951400756836
15.75190258026123
5.7816667556762695
-3.793229579925537
-12.958169937133789
-21.701793670654293
-30.016326904296875
-37.897186279296875
-45.3420181274414
-52.349822998046875
-58.92124938964843
-65.05835723876953
-70.76630401611328
-76.05464935302733
-80.93597412109375
-85.42562866210936
-89.5409164428711
-93.3000259399414
-96.72054290771483
-99.81996154785155
-102.61651611328125
-105.12700653076172
-107.36872863769531
-109.36033630371094
-111.12086486816406
-112.67184448242186
-114.04129028320311
-115.26121520996092
-116.36499786376953
-117.38966369628906
-118.36676788330078
-119.31936645507811
-120.26980590820312
-121.2355499267578
-122.22845458984374
-123.26043701171874
-124.33448791503905
-125.44049835205078
-126.57000732421874
-127.7148666381836
-128.86341857910156
-130.01251220703125
-131.15657043457028
-132.28469848632812
-133.39930725097656
-134.50936889648438
-135.63543701171875
-136.82464599609375
-138.12741088867188
-139.58790588378906
-141.25558471679685
-143.16964721679688
-145.38868713378906
-148.01953124999997
-151.17788696289062
-154.98304748535156
-159.5372314453125
-164.89059448242188
-171.08184814453122
-178.15345764160156
-186.0964660644531
-194.8513488769531
-204.2313232421875
-213.87030029296875
-223.53054809570312
-233.1900634765625
-242.93939208984372
-253.05093383789065
-263.69757080078125
-274.81790161132807
-286.5765380859375
-299.34570312499994
-312.979736328125
-326.8251953125
-339.7770690917969
-350.1586608886719
-356.3879699707031
-357.1580810546875
-351.08636474609375
-337.17095947265625
-317.3983154296875
-296.07952880859375
-277.092041015625
-263.596435546875
-252.9780578613281
-239.7490081787109
-223.7198791503906
-209.85594177246094
-212.99455261230466
-250.49392700195312
-331.85638427734375
-457.65155029296875
-610.1832275390625
-763.9410400390624
-892.5711059570312
-969.5789184570311
-987.5322265625
-948.8596801757811
-862.4839477539062
-750.0469970703125
-625.95458984375
-503.0714416503906
-397.79348754882807
-316.2867431640625
-262.11346435546875
-234.43092346191406
-221.14823913574216
-212.20758056640625
-202.96029663085935
-192.06848144531247
-184.39750671386716
-183.57276916503903
-187.71990966796872
-193.023193359375
-195.029296875
-191.41215515136716
-182.82360839843747
-170.94264221191406
-157.4842529296875
-143.49539184570312
-129.886962890625
-117.63921356201172
-107.30519104003906
-99.16516876220703
-93.08988189697264
-88.517333984375
-84.94863891601562
-81.95797729492188
-79.02615356445311
-75.77243041992188
-71.9855728149414
-67.41330718994139
-61.86307144165039
-55.37184143066406
-48.03577423095703
-40.11065673828125
-32.040077209472656
-24.0606746673584
-16.261934280395504
-8.732644081115723
-1.4976487159729004
5.410125732421875
11.930711746215819
18.10622406005859
24.06465148925781
29.85359954833984
35.47229766845703
40.85267639160156
45.84046173095703
50.37692260742187
54.47866058349609
58.19361114501953
61.62794494628906
64.84817504882812
67.87633514404297
70.75953674316406
73.55328369140624
76.28141021728516
78.95193481445312
81.5301513671875
83.93196105957031
86.10814666748047
88.03807830810547
89.71067810058592
91.13816833496092
92.31729125976562
93.22582244873045
93.8450927734375
94.15458679199219
94.13058471679686
93.75173950195312
92.9883041381836
91.8013916015625
90.16493225097656
88.06434631347656
85.49517059326172
82.46699523925781
78.98701477050781
75.05830383300781
70.68895721435547
65.88975524902342
60.67123413085937
55.04570770263672
49.02341079711913
42.61149597167968
35.8232536315918
28.677915573120117
21.197208404541016
13.406956672668455
5.335378646850586
-2.98924446105957
-11.536650657653809
-20.275054931640625
-29.174877166748047
-38.20766830444336
-47.34501647949218
-56.559707641601555
-65.82450866699217
-75.11092376708984
-84.39073944091797
-93.63554382324219
-102.8154830932617
-111.90156555175781
-120.86570739746094
-129.680419921875
-138.32244873046875
-146.77273559570312
-155.01467895507812
-163.034423828125
-170.81939697265625
-178.35691833496094
-185.63818359375
-192.65841674804688
-199.4084014892578
-205.87515258789062
-212.04211425781247
-217.88912963867188
-223.40390014648438
-228.5820770263672
-233.41894531249997
-237.90985107421875
-242.0557098388672
-245.8610382080078
-249.34133911132815
-252.523193359375
-255.4222717285156
-258.0452270507812
-260.39300537109375
-262.4580993652344
-264.2422790527344
-265.7604675292969
-267.02850341796875
-268.0628662109375
-268.8830261230469
-269.50311279296875
-269.9468994140625
-270.25433349609375
-270.44635009765625
-270.52099609374994
-270.4434204101562
-270.1402587890625
-269.5548095703125
-268.66152954101557
-267.4517211914062
-265.9345703125
-264.1270446777343
-262.04983520507807
-259.74603271484375
-257.2879638671875
-254.75256347656247
-252.21688842773435
-249.74765014648438
-247.38218688964844
-245.12153625488278
-242.93521118164062
-240.88171386718747
-239.14822387695312
-237.85330200195312
-237.00648498535156
-236.40467834472656
-235.60479736328125
-234.3824768066406
-232.8428039550781
-231.06561279296875
-228.9864501953125
-226.58114624023438
-223.89700317382812
-221.60324096679688
-221.20993041992188
-223.77462768554688
-229.49246215820312
-237.93637084960935
-248.15922546386716
-259.393310546875
-271.12234497070307
-281.8915710449218
-288.873291015625
-289.4317626953125
-281.9183044433593
-266.2590637207031
-243.69018554687497
-214.69911193847656
-179.37356567382812
-139.10491943359375
-98.44465637207031
-64.27618408203124
-42.690834045410156
-36.231861114501946
-40.56602096557617
-49.660377502441406
-60.44512176513672
-74.72222137451172
-105.78543853759766
-168.64385986328125
-274.2451171875
-426.500244140625
-606.907470703125
-787.5503540039061
-937.6915283203125
-1026.6051025390625
-1047.9932861328125
-1007.9344482421875
-918.578857421875
-803.511962890625
-676.233642578125
-547.7822265625
-434.27758789062494
-342.3649291992187
-276.7859191894531
-237.9274139404297
-213.75697326660153
-194.24716186523438
-174.5851898193359
-153.76495361328125
-138.32936096191406
-133.81182861328125
-140.02272033691406
-153.45016479492188
-168.1285400390625
-179.49212646484372
-186.19912719726562
-188.67416381835935
-187.7719268798828
-183.6020355224609
-176.25253295898438
-166.3679504394531
-155.0526580810547
-143.88702392578125
-133.75271606445312
-124.66263580322264
-116.51161193847656
-109.02287292480467
-101.87660217285155
-94.80720520019531
-87.20149230957031
-78.29790496826172
-67.78726196289062
-55.68485260009765
-42.256752014160156
-28.03057479858398
-13.367384910583496
1.5163187980651855
16.372539520263672
31.049972534179688
45.46398925781249
59.554954528808594
73.38554382324217
87.05937194824217
100.60556030273438
114.00513458251953
127.14785766601561
139.88446044921875
152.14927673339844
163.92449951171875
175.24298095703125
186.20053100585938
196.85494995117188
207.2423858642578
217.41886901855466
227.40283203125
237.1869201660156
246.75247192382812
256.02911376953125
264.9248352050781
273.3758239746094
281.3335266113281
288.773193359375
295.69317626953125
302.07464599609375
307.8903198242187
313.11376953125
317.70806884765625
321.64227294921875
324.8896484375
327.41168212890625
329.1739807128906
330.15386962890625
330.3352966308594
329.7181701660156
328.31610107421875
326.1390380859375
323.1984252929687
319.511474609375
315.09417724609375
309.9661560058594
304.15057373046875
297.66741943359375
290.53741455078125
282.78704833984375
274.446533203125
265.55084228515625
256.1405029296875
246.2576751708984
235.94677734374997
225.25549316406247
214.23226928710938
202.92591857910156
191.38592529296872
179.66000366210938
167.79428100585938
155.834716796875
143.8266906738281
131.81573486328125
119.84810638427733
107.96942138671874
96.22410583496094
84.65645599365234
73.3093795776367
62.22276306152343
51.433387756347656
40.973052978515625
30.868976593017578
21.146026611328125
11.827255249023438
2.9328866004943848
-5.5190486907958975
-13.510205268859862
-21.02309417724609
-28.037979125976562
-34.5318603515625
-40.486167907714844
-45.887630462646484
-50.727195739746094
-55.00157928466797
-58.712379455566406
-61.86248779296875
-64.46218872070312
-66.53152465820311
-68.0899658203125
-69.1592788696289
-69.75796508789062
-69.89396667480469
-69.57913208007812
-68.83000183105467
-67.66350555419922
-66.1056442260742
-64.18238830566406
-61.90865707397461
-59.30839920043945
-56.41853713989258
-53.26494598388671
-49.87221527099609
-46.24782180786132
-42.35862350463867
-38.18122482299805
-33.70919799804687
-28.93850708007812
-23.890975952148434
-18.595178604125977
-13.085524559020996
-7.44290542602539
-1.7769354581832886
3.7896680831909175
9.127073287963867
14.150357246398924
18.808530807495117
23.03826141357422
26.79659080505371
30.041715621948242
32.690372467041016
34.7253532409668
36.08551025390625
36.643638610839844
36.47171020507812
35.655242919921875
34.32727813720703
32.80635452270507
31.24173355102539
29.707792282104492
28.676261901855465
28.66000938415527
29.59201431274414
31.363204956054688
33.44425964355468
34.87274169921875
35.706966400146484
36.243438720703125
35.95325088500976
34.29089355468749
31.39159774780273
27.72041130065918
25.069370269775387
26.068527221679688
31.392053604125973
41.24634552001953
56.77689361572265
78.85267639160156
107.78327178955078
141.06660461425778
172.16925048828125
194.39492797851562
204.31301879882812
204.56146240234372
200.3070068359375
192.31460571289062
175.732421875
136.11088562011716
58.48822784423828
-64.29469299316406
-232.18359375
-426.1798095703125
-619.4479370117188
-784.5963745117188
-892.5032958984375
-934.2802734375
-912.9559326171875
-837.1930541992188
-727.8542480468749
-599.8777465820311
-466.1372985839843
-343.1424560546875
-238.97738647460938
-156.44984436035156
-92.47977447509766
-35.3978042602539
23.693889617919922
86.82598114013672
150.47561645507812
206.2530517578125
248.75686645507812
277.40753173828125
294.42327880859375
304.7680358886719
311.8470764160156
317.320556640625
322.9979553222656
329.36572265625
336.4191284179687
344.70428466796875
354.3372192382812
365.0245666503906
376.81127929687494
389.2763671875
401.2994384765625
412.4020080566406
422.57519531249994
431.8667602539062
440.8318481445312
450.1175537109375
460.0237121582031
471.01214599609375
483.70086669921875
498.33184814453125
515.0104370117186
533.7164306640625
554.0616455078125
575.6243286132811
598.0012817382812
620.6917724609375
643.3536987304688
665.8186645507812
687.9255981445312
709.578369140625
730.6898193359375
751.099609375
770.72607421875
789.54541015625
807.4853515625
824.491943359375
840.5101318359375
855.4766845703124
869.4268798828124
882.4626464843749
894.6928100585938
906.2391357421874
917.1620483398438
927.4593505859375
937.1290283203124
946.1536254882812
954.500244140625
962.1371459960938
969.000244140625
975.0042724609374
980.0967407226561
984.239990234375
987.4004516601561
989.554931640625
990.6571044921875
990.643798828125
989.4608154296875
987.0558471679688
983.3851318359374
978.4205322265625
972.137939453125
964.5204467773438
955.5685424804688
945.2948608398438
933.7213745117188
920.8816528320311
906.807373046875
891.5278320312499
875.0760498046874
857.4871215820312
838.8004150390625
819.0623779296875
798.3229980468749
776.6363525390624
754.0646972656249
730.6763916015625
706.5444946289062
681.7464599609375
656.3617553710938
630.4701538085938
604.1534423828125
577.4935302734375
550.5717773437499
523.4705810546875
496.273681640625
469.06591796874994
441.93389892578125
414.96295166015625
388.2349853515625
361.83001708984375
335.8252868652344
310.29302978515625
285.30059814453125
260.9090881347656
237.1722412109375
214.14024353027344
191.86105346679688
170.37829589843747
149.73184204101562
129.95968627929688
111.09646606445312
93.17425537109375
76.22298431396484
60.264350891113274
45.31083297729492
31.368839263916016
18.437623977661133
6.508008003234863
-4.435614585876465
-14.418054580688477
-23.473155975341797
-31.63433074951172
-38.93449020385742
-45.40753173828125
-51.086978912353516
-56.011123657226555
-60.225044250488274
-63.775405883789055
-66.70926666259766
-69.0768814086914
-70.92737579345703
-72.31819152832031
-73.31887817382812
-73.98474121093749
-74.35357666015624
-74.43923950195312
-74.22599792480469
-73.71067810058594
-72.91676330566405
-71.86683654785156
-70.58546447753906
-69.12666320800781
-67.56138610839844
-66.01248168945312
-64.66718292236327
-63.67559051513671
-63.150066375732415
-63.16917419433594
-63.74457168579101
-64.892333984375
-66.6575698852539
-69.09297180175781
-72.29095458984375
-76.36123657226562
-81.35822296142577
-87.34621429443358
-94.40519714355469
-102.48089599609375
-111.45499420166014
-121.09552001953124
-130.928466796875
-140.49850463867185
-149.49465942382812
-157.7247619628906
-165.27947998046875
-172.5132598876953
-179.7401428222656
-187.16012573242185
-195.01828002929688
-203.5948486328125
-213.0401916503906
-223.1325225830078
-232.91786193847656
-240.80885314941406
-245.27996826171872
-245.56454467773438
-241.23141479492188
-231.4673309326172
-215.68963623046872
-193.89865112304685
-169.06027221679685
-147.49346923828125
-135.06642150878906
-136.31179809570312
-149.0486145019531
-165.79312133789062
-183.01644897460938
-199.47775268554685
-225.94659423828122
-284.03594970703125
-387.542236328125
-545.5228881835938
-748.059814453125
-959.9971923828125
-1146.3323974609375
-1271.638916015625
-1312.19873046875
-1273.0081787109375
-1166.79443359375
-1012.4640502929686
-836.8623046875
-656.6220092773438
-489.62881469726557
-357.10110473632807
-267.3478698730469
-225.04067993164062
-224.86929321289062
-248.862548828125
-281.7764892578125
-308.0878601074219
-318.4256286621094
-311.55584716796875
-290.631591796875
-265.5095520019531
-243.66049194335938
-230.13230895996094
-224.9091339111328
-221.30827331542966
-215.69467163085935
-206.32418823242188
-194.25830078125
-183.7404327392578
-176.28057861328125
-171.70550537109375
-169.47354125976562
-168.24276733398438
-167.33050537109375
-166.443603515625
-164.72171020507812
-161.43202209472656
-156.2434844970703
-149.0146484375
-139.9010009765625
-129.0178985595703
-116.36026763916014
-102.05476379394531
-86.39122009277344
-69.81537628173828
-52.77273559570312
-35.514198303222656
-18.14199447631836
-0.7146124839782715
16.69940185546875
33.983184814453125
50.98997497558594
67.61466217041016
83.802490234375
99.49121856689452
114.615234375
129.08963012695312
142.8245391845703
155.79530334472656
168.03704833984375
179.64564514160156
190.73822021484372
201.37197875976562
211.55477905273435
221.27304077148435
230.49945068359375
239.2070617675781
247.3665771484375
254.91839599609375
261.77996826171875
267.8899536132812
273.20571899414057
277.70068359375
281.36102294921875
284.15814208984375
286.0503234863281
286.991943359375
286.9384460449218
285.8564453125
283.7227783203125
280.5199890136719
276.2383422851562
270.87939453125
264.45751953125
257.00384521484375
248.5622863769531
239.17686462402344
228.89242553710938
217.75531005859375
205.8134002685547
193.12030029296872
179.73352050781247
165.71089172363278
151.11166381835935
135.99996948242188
120.44507598876952
104.52141571044922
88.30680847167969
71.87954711914062
55.318565368652344
38.70320129394531
22.112234115600586
5.623034477233887
-10.690876960754395
-26.75997161865234
-42.517593383789055
-57.900184631347656
-72.84703826904297
-87.29981231689453
-101.20333862304686
-114.50575256347656
-127.15768432617188
-139.1138763427734
-150.33522033691406
-160.78829956054688
-170.4475860595703
-179.29672241210938
-187.32598876953125
-194.532470703125
-200.9193878173828
-206.49325561523435
-211.26451110839844
-215.24874877929688
-218.46331787109375
-220.92546081542966
-222.65415954589844
-223.66934204101562
-223.994384765625
-223.6616973876953
-222.70819091796872
-221.17205810546872
-219.0956268310547
-216.52452087402344
-213.50843811035153
-210.1042938232422
-206.3693084716797
-202.35226440429688
-198.09918212890625
-193.65444946289062
-189.0572509765625
-184.34979248046875
-179.57298278808594
-174.7590789794922
-169.94345092773438
-165.1634521484375
-160.4505615234375
-155.84144592285156
-151.37594604492188
-147.07368469238278
-142.93978881835938
-138.9597625732422
-135.0850830078125
-131.2785491943359
-127.51753234863281
-123.7693634033203
-120.02862548828124
-116.31767272949217
-112.67837524414062
-109.20945739746094
-106.03394317626953
-103.23662567138672
-100.88962554931639
-99.04423522949219
-97.6771011352539
-96.7583999633789
-96.2653579711914
-96.16026306152344
-96.5064239501953
-97.41571807861328
-98.95243835449219
-101.1839370727539
-104.1251220703125
-107.70295715332031
-111.80204772949217
-116.22453308105469
-120.60005187988281
-124.46839904785156
-127.46452331542969
-129.3798828125
-130.35221862792966
-130.80108642578125
-131.1045684814453
-131.50411987304688
-132.19039916992188
-133.5137481689453
-135.67181396484375
-138.40087890625
-140.80947875976562
-141.36618041992188
-138.8221893310547
-132.42681884765622
-121.41412353515624
-104.83792114257812
-81.91619110107422
-54.68326187133788
-28.076202392578125
-7.090155601501464
3.6468844413757324
6.895277500152588
11.132977485656737
18.744554519653317
29.61088943481445
31.62234878540039
0.27020812034606934
-78.01960754394531
-211.5438995361328
-393.14227294921875
-589.7266235351561
-770.0402221679688
-902.026123046875
-959.1261596679686
-942.3333740234375
-859.1697998046875
-723.52587890625
-563.04345703125
-396.78509521484375
-246.22546386718747
-136.70297241210938
-76.17478942871094
-66.87676239013672
-100.044921875
-153.32528686523438
-210.14855957031247
-256.2200622558594
-284.15130615234375
-295.31390380859375
-293.5547790527343
-287.33319091796875
-282.552734375
-282.79095458984375
-287.7809753417969
-291.5935974121094
-291.1132202148437
-284.9263000488281
-273.98687744140625
-262.4964599609375
-252.4063720703125
-244.01028442382812
-237.23138427734375
-231.03265380859375
-224.83012390136716
-218.57333374023438
-211.82719421386716
-204.2504425048828
-195.79696655273438
-186.45266723632812
-176.34658813476562
-165.64151000976562
-154.42343139648438
-142.80276489257812
-130.95101928710938
-118.9798126220703
-106.90220642089842
-94.68168640136717
-82.2444610595703
-69.54426574707031
-56.58079528808593
-43.347007751464844
-29.821403503417965
-15.999061584472656
-1.896430969238281
12.445092201232908
26.959327697753906
41.587799072265625
56.286643981933594
71.01087188720703
85.7116012573242
100.33294677734374
114.81089782714844
129.082275390625
143.08828735351562
156.7656555175781
170.04568481445312
182.85693359374997
195.12469482421875
206.77896118164062
217.75741577148438
228.0009002685547
237.45404052734375
246.06631469726562
253.79074096679688
260.5853271484375
266.41445922851557
271.24353027343744
275.03851318359375
277.7684631347656
279.4046936035156
279.92340087890625
279.3082275390625
277.54876708984375
274.6408386230469
270.58917236328125
265.4069519042969
259.1155700683594
251.74513244628906
243.3311004638672
233.9127197265625
223.5345001220703
212.2455139160156
200.09823608398438
187.1487274169922
173.45516967773435
159.07740783691403
144.0793914794922
128.5292510986328
112.49743652343749
96.05650329589844
79.27924346923827
62.23781585693359
45.00456619262695
27.651298522949215
10.247764587402344
-7.138619422912598
-24.443271636962887
-41.60490417480469
-58.563236236572266
-75.25819396972655
-91.63102722167969
-107.6241683959961
-123.18321228027342
-138.25857543945312
-152.80487060546875
-166.7808837890625
-180.15179443359372
-192.89021301269528
-204.9759521484375
-216.3959808349609
-227.14093017578122
-237.203125
-246.57833862304688
-255.2658233642578
-263.266357421875
-270.5814819335937
-277.21173095703125
-283.156982421875
-288.42285156249994
-293.022705078125
-296.9736938476562
-300.2964782714843
-303.01422119140625
-305.15164184570307
-306.73992919921875
-307.8175048828125
-308.42071533203125
-308.58074951171875
-308.3249816894531
-307.67645263671875
-306.66082763671875
-305.3109436035156
-303.6593933105469
-301.7359619140625
-299.5689697265625
-297.1811828613281
-294.6016845703125
-291.86929321289057
-289.01239013671875
-286.045654296875
-282.9580993652343
-279.7095642089844
-276.2685546875
-272.6261291503906
-268.7799072265625
-264.72949218749994
-260.4869995117187
-256.08251953125
-251.59494018554688
-247.16407775878906
-242.92926025390622
-239.00390624999997
-235.4604034423828
-232.32678222656247
-229.6262969970703
-227.37661743164062
-225.61195373535156
-224.38681030273438
-223.7562255859375
-223.7847900390625
-224.5274658203125
-226.03506469726562
-228.32292175292966
-231.32528686523438
-234.86349487304688
-238.63348388671872
-242.2118988037109
-245.08789062499997
-246.9363555908203
-247.66297912597653
-247.3405303955078
-246.35537719726562
-245.09030151367188
-243.76449584960935
-242.83465576171872
-242.98968505859375
-244.45529174804688
-246.80419921875
-249.17907714843747
-250.01763916015622
-247.64811706542966
-240.98046874999997
-228.63973999023438
-208.72103881835938
-182.32955932617188
-153.7723846435547
-127.06207275390625
-107.6656265258789
-94.80067443847656
-80.12542724609375
-61.593841552734375
-40.24262237548828
-28.742727279663086
-53.85997009277343
-132.8834991455078
-276.50845336914057
-477.82116699218744
-702.8433227539062
-916.7056274414062
-1081.509033203125
-1167.388916015625
-1174.302978515625
-1109.8590087890625
-990.9977416992188
-847.2940673828125
-694.5830078124999
-549.9917602539062
-435.1229553222656
-353.32403564453125
-306.4313354492187
-289.54180908203125
-282.13775634765625
-274.33148193359375
-263.28704833984375
-249.22647094726562
-241.67536926269528
-244.3934631347656
-253.845703125
-265.49169921875
-273.3951110839844
-274.9522705078125
-271.0863342285156
-263.1712646484375
-252.7441253662109
-240.69178771972653
-227.87844848632812
-215.68463134765622
-204.9382781982422
-195.96559143066406
-188.7046356201172
-182.60902404785153
-177.22618103027344
-172.27723693847653
-167.22914123535156
-161.42596435546875
-154.4063720703125
-145.77586364746094
-135.3760528564453
-123.37464141845702
-109.94819641113281
-95.34960937499999
-79.98196411132811
-64.16590118408202
-48.11467742919922
-32.00287628173828
-15.886062622070314
0.23901891708374023
16.355648040771484
32.50116729736328
48.72983932495117
65.04174041748047
81.38424682617186
97.62973785400389
113.63638305664061
129.33091735839844
144.68785095214844
159.73492431640625
174.54647827148438
189.16253662109375
203.60740661621094
217.92291259765625
232.11801147460938
246.17535400390622
260.0635986328125
273.7044677734375
286.99822998046875
299.8725280761718
312.2738037109375
324.1662292480468
335.5290832519531
346.3274230957031
356.5177917480468
366.0586547851562
374.90399169921875
383.0122680664062
390.3406372070312
396.83599853515625
402.4501647949219
407.146728515625
410.89892578125
413.6958312988281
415.538330078125
416.42559814453125
416.36126708984375
415.3573913574219
413.4278259277344
410.5919189453125
406.87295532226557
402.2927551269531
396.8748168945312
390.6493530273437
383.651123046875
375.91882324218744
367.4959106445312
358.4276733398437
348.76184082031244
338.550537109375
327.84918212890625
316.71478271484375
305.204833984375
293.37637329101557
281.2856140136719
268.98846435546875
256.5404357910156
243.99551391601562
231.4053802490234
218.8196105957031
206.28808593749997
193.86143493652344
181.59030151367185
169.5246887207031
157.71151733398438
146.1934814453125
135.00973510742188
124.19620513916016
113.78296661376953
103.79371643066406
94.24716186523438
85.15716552734374
76.53532409667969
68.3936538696289
60.74267959594726
53.590179443359375
46.944011688232415
40.81230163574218
35.20295715332031
30.124139785766598
25.5791072845459
21.563909530639645
18.06976890563965
15.085542678833006
12.598480224609375
10.59251594543457
9.046020507812498
7.931023597717285
7.219875335693359
6.889522552490234
6.92276382446289
7.305362701416016
8.016090393066404
9.029096603393555
10.318063735961914
11.859579086303711
13.638660430908203
15.64396858215332
17.854822158813473
20.239772796630856
22.78034782409668
25.47677993774414
28.357219696044922
31.478992462158203
34.8826904296875
38.58338928222656
42.587772369384766
46.899734497070305
51.51190185546874
56.390052795410156
61.44902038574218
66.53690338134764
71.4932632446289
76.18828582763672
80.54180908203125
84.53490447998047
88.14500427246092
91.33440399169922
94.0349884033203
96.1298370361328
97.52752685546875
98.18360900878905
98.05478668212889
97.06898498535155
95.20726013183594
92.52210998535156
89.17235565185547
85.61349487304688
82.44422912597656
80.09053039550781
78.78604888916016
78.51867675781249
78.9738540649414
79.83094024658202
80.91889190673827
81.78067016601562
81.6565933227539
80.14080810546875
77.31222534179686
73.93441772460936
71.615478515625
72.19570922851562
77.20755004882812
88.3224105834961
107.67875671386717
134.6458587646484
165.72654724121094
197.64508056640622
225.16171264648438
248.3645324707031
274.28985595703125
302.08233642578125
327.8244018554687
340.20751953125
314.3171081542969
237.97442626953125
107.9199447631836
-73.82392883300781
-284.0268859863281
-498.58941650390625
-694.6728515625
-841.78759765625
-920.9683227539061
-926.9364013671875
-860.080810546875
-734.7484130859374
-576.739013671875
-405.57986450195307
-244.40544128417966
-118.37345886230467
-33.416412353515625
9.382561683654785
18.977571487426758
19.827835083007812
23.779624938964844
34.15231704711913
49.074615478515625
56.203712463378906
50.669761657714844
35.90519714355469
16.67533302307129
0.37028741836547846
-9.418918609619139
-13.596586227416992
-13.15571880340576
-9.176765441894531
-2.3817429542541504
6.877623558044433
17.506399154663086
27.966686248779297
37.42821502685547
45.808807373046875
53.29808807373047
60.26070785522461
67.04023742675781
73.90746307373047
81.45710754394531
90.53524780273438
101.63467407226562
114.90679931640625
130.23335266113278
147.23849487304688
165.52587890625
184.71337890625
204.45487976074216
224.45985412597656
244.54025268554688
264.60845947265625
284.64788818359375
304.697265625
324.78555297851557
344.9351196289062
365.0787353515625
385.05816650390625
404.72442626953125
423.93585205078125
442.6064147949218
460.714599609375
478.27825927734375
495.3491821289062
511.96841430664057
528.1651000976562
543.944580078125
559.281005859375
574.1240844726562
588.400146484375
602.015380859375
614.8595581054686
626.8538818359375
637.9510498046875
648.112060546875
657.3121948242186
665.5184326171874
672.6877441406249
678.7794189453125
683.7531127929688
687.5660400390625
690.1737060546875
691.5378417968749
691.626708984375
690.4221801757812
687.92138671875
684.1342773437499
679.083251953125
672.79541015625
665.3027343749999
656.64208984375
646.8536987304688
635.9830322265625
624.078369140625
611.1897583007812
597.3689575195312
582.6729736328125
567.1636352539062
550.9070434570312
533.9732666015625
516.4339599609375
498.36328125
479.8379211425781
460.9358520507812
441.7354431152344
422.31353759765625
402.74548339843744
383.1044921875
363.4601745605469
343.87994384765625
324.4290771484375
305.1687927246094
286.158447265625
267.45684814453125
249.1199951171875
231.20260620117188
213.75767517089844
196.83267211914062
180.46949768066406
164.70523071289062
149.57003784179688
135.08779907226562
121.2771224975586
108.14993286132812
95.71379089355467
83.97317504882812
72.92886352539062
62.58103942871094
52.92920303344726
43.97302246093749
35.71330261230469
28.148422241210938
21.272035598754883
15.073587417602539
9.538751602172852
4.6493682861328125
0.38437676429748535
-3.2853822708129883
-6.398306369781493
-8.994526863098145
-11.11255931854248
-12.780644416809082
-14.01807689666748
-14.849388122558592
-15.302472114562987
-15.412179946899412
-15.21989631652832
-14.757318496704102
-14.054592132568358
-13.151391983032227
-12.08613586425781
-10.903112411499023
-9.652046203613281
-8.34408950805664
-6.960665225982665
-5.472311496734619
-3.8226335048675533
-1.9902139902114868
0.006581783294677734
2.180919647216797
4.538463115692139
7.078227519989014
9.811943054199219
12.648801803588867
15.435039520263672
18.061702728271484
20.407449722290036
22.425539016723633
24.20426368713379
25.703189849853516
26.78708839416504
27.426832199096676
27.542503356933594
27.287168502807614
27.13019561767578
27.17525863647461
27.222316741943356
27.12531280517578
26.652462005615234
25.727069854736328
24.535289764404297
22.539154052734375
18.556570053100586
11.939497947692871
2.4242610931396484
-9.647743225097656
-23.185571670532223
-37.38393402099609
-51.660133361816406
-64.62983703613281
-74.31101989746094
-78.88851928710938
-76.80866241455078
-67.732177734375
-52.67295837402344
-32.95986175537109
-9.82298755645752
15.549229621887205
41.69601058959961
66.74270629882812
86.8910140991211
97.02410888671875
93.4897003173828
74.21556854248047
43.83321762084961
13.038383483886719
-10.644393920898438
-22.903800964355465
-33.939056396484375
-68.32720947265625
-144.84164428710935
-276.77972412109375
-455.787109375
-648.2910156249999
-821.4705810546875
-939.8405151367188
-980.8820190429688
-944.8313598632812
-835.9061889648438
-676.2347412109375
-496.8196105957031
-325.0599060058594
-193.65455627441406
-115.51112365722656
-84.36920928955078
-86.25069427490233
-94.29737854003906
-92.99356079101561
-82.10326385498047
-66.42924499511719
-57.91639709472656
-62.24174118041992
-75.71803283691406
-92.59188079833984
-106.29860687255858
-113.73513031005858
-115.3498306274414
-112.27589416503905
-105.80484771728516
-96.60516357421875
-85.64221954345703
-74.58650207519531
-64.49744415283203
-55.87273406982422
-48.71596908569335
-42.5494499206543
-37.051948547363274
-32.00456237792969
-26.89251708984375
-20.958534240722656
-13.577306747436522
-4.401755332946777
6.550922393798828
18.971553802490234
32.50314712524414
46.765045166015625
61.42761230468749
76.22591400146484
90.94374084472656
105.47014617919922
119.75439453124999
133.80194091796875
147.67095947265625
161.41232299804688
175.02984619140625
188.45089721679688
201.52630615234372
214.10629272460938
226.11361694335938
237.51962280273435
248.34429931640625
258.6553039550781
268.48199462890625
277.837646484375
286.7581787109375
295.24725341796875
303.28311157226557
310.830322265625
317.8091430664062
324.1203002929687
329.69586181640625
334.49456787109375
338.4932556152344
341.68408203125
344.0469665527344
345.553466796875
346.1795654296875
345.89984130859375
344.6953735351562
342.54815673828125
339.4325561523437
335.33026123046875
330.2366638183594
324.15814208984375
317.1170654296875
309.1480407714844
300.2846374511719
290.56451416015625
280.03384399414057
268.7406921386719
256.73809814453125
244.0841064453125
230.83648681640625
217.05551147460938
202.807373046875
188.1617431640625
173.1914367675781
157.97303771972656
142.5831756591797
127.09854888916014
111.59611511230467
96.15167236328125
80.84084320068358
65.73839569091797
50.916465759277344
36.444923400878906
22.39104652404785
8.817715644836424
-4.21594762802124
-16.655139923095703
-28.45176315307617
-39.562400817871094
-49.94824600219726
-59.577049255371094
-68.42132568359374
-76.45777893066406
-83.66856384277342
-90.04025268554688
-95.56409454345703
-100.23923492431639
-104.07152557373047
-107.07232666015625
-109.26119232177734
-110.66429901123045
-111.31353759765625
-111.2474365234375
-110.50790405273438
-109.1376953125
-107.18329620361328
-104.69349670410156
-101.71477508544922
-98.29397583007812
-94.47687530517578
-90.30657958984374
-85.83138275146484
-81.10511779785155
-76.18140411376953
-71.1148681640625
-65.96418762207031
-60.78548049926757
-55.63610076904297
-50.57769012451172
-45.660957336425774
-40.9276008605957
-36.4161491394043
-32.15666580200195
-28.17568588256836
-24.50485610961914
-21.17088508605957
-18.193763732910156
-15.600685119628906
-13.410770416259764
-11.64067268371582
-10.317032814025877
-9.443460464477539
-9.004438400268553
-8.972472190856932
-9.287822723388672
-9.89162826538086
-10.753965377807615
-11.838690757751465
-13.108154296874998
-14.569107055664062
-16.238584518432617
-18.170503616333008
-20.488285064697266
-23.272424697875973
-26.5629768371582
-30.394718170166012
-34.74378967285156
-39.57381057739258
-44.8709487915039
-50.59370040893554
-56.71933364868164
-63.27787780761719
-70.28718566894531
-77.79711914062499
-85.87761688232422
-94.48683929443358
-103.51670074462889
-112.76628112792967
-121.8642578125
-130.47242736816403
-138.23019409179688
-144.6890869140625
-149.66204833984375
-153.17065429687497
-155.38819885253903
-156.78765869140625
-157.7701873779297
-158.56141662597653
-159.7169189453125
-161.83520507812497
-164.79859924316406
-168.29768371582028
-171.61909484863278
-173.25839233398438
-172.3129425048828
-167.9254608154297
-158.0919952392578
-143.02825927734375
-126.20632934570312
-110.54456329345702
-100.23320770263672
-94.53710937499999
-83.96214294433594
-65.05369567871092
-39.35855484008789
-18.15656280517578
-28.156518936157227
-86.14295196533203
-198.96276855468747
-363.08819580078125
-551.7177124023436
-738.25244140625
-897.2388305664062
-1001.1739501953124
-1042.2325439453125
-1022.2019042968749
-949.0593261718749
-841.69384765625
-713.5020751953125
-573.69677734375
-434.80700683593744
-309.9591064453125
-211.8524475097656
-149.32260131835938
-119.83343505859374
-109.1461944580078
-103.02556610107422
-93.5072021484375
-80.57189178466795
-72.24150085449219
-74.16555786132812
-85.47138214111328
-101.78797912597655
-116.5771026611328
-126.19293212890625
-130.7657928466797
-131.24472045898435
-128.7015838623047
-123.69447326660156
-116.60147094726562
-108.4903564453125
-100.80747985839844
-94.36153411865234
-89.21992492675781
-85.06837463378906
-81.40481567382811
-77.78936767578125
-73.76863861083984
-68.74414825439452
-62.050994873046875
-53.313289642333984
-42.52506256103515
-29.904088973999023
-15.848041534423826
-0.8171792030334473
14.770532608032227
30.595943450927734
46.4132080078125
62.08849334716796
77.58853149414062
92.8735122680664
107.9241943359375
122.72278594970703
137.18850708007812
151.2224578857422
164.7252197265625
177.57861328125
189.6930236816406
201.04284667968747
211.63427734375
221.53211975097656
230.85263061523435
239.65457153320312
247.95159912109372
255.73928833007812
262.9698486328125
269.59252929687494
275.5608520507812
280.7996215820312
285.2276306152344
288.7917175292969
291.45361328125
293.1905212402344
293.99627685546875
293.84869384765625
292.7174072265625
290.5723876953125
287.37347412109375
283.09100341796875
277.7098693847656
271.21783447265625
263.613525390625
254.9093780517578
245.12567138671875
234.29824829101562
222.48031616210938
209.72396850585938
196.081298828125
181.60946655273435
166.36553955078125
150.41229248046875
133.8201751708984
116.65956115722656
99.00096130371092
80.92092895507812
62.499969482421875
43.821693420410156
24.9738712310791
6.042847633361816
-12.887407302856444
-31.732105255126957
-50.40728759765625
-68.8310775756836
-86.9231185913086
-104.60684204101561
-121.81053161621094
-138.46560668945312
-154.5076904296875
-169.877685546875
-184.5209197998047
-198.38880920410156
-211.4396514892578
-223.63714599609375
-234.9494934082031
-245.35037231445312
-254.81823730468747
-263.33770751953125
-270.90167236328125
-277.50909423828125
-283.1639709472656
-287.877685546875
-291.66876220703125
-294.5629577636719
-296.593017578125
-297.7950744628906
-298.2062377929687
-297.86749267578125
-296.8231506347656
-295.11822509765625
-292.7975769042969
-289.9040832519531
-286.47833251953125
-282.5647277832031
-278.2135620117187
-273.4767761230469
-268.40716552734375
-263.05877685546875
-257.4848937988281
-251.7421875
-245.89181518554688
-239.989990234375
-234.0843505859375
-228.2156066894531
-222.4172210693359
-216.72099304199216
-211.16281127929688
-205.77584838867188
-200.58705139160153
-195.61927795410156
-190.88845825195312
-186.41452026367185
-182.22552490234372
-178.33645629882812
-174.74520874023438
-171.42308044433594
-168.31190490722656
-165.36248779296872
-162.54776000976562
-159.84527587890625
-157.2318115234375
-154.69509887695312
-152.24145507812497
-149.924560546875
-147.86166381835935
-146.17083740234375
-144.93972778320312
-144.21542358398438
-144.0003509521484
-144.29534912109375
-145.10107421874997
-146.43479919433594
-148.331787109375
-150.81600952148438
-153.92018127441406
-157.6789855957031
-162.1325531005859
-167.300048828125
-173.12466430664062
-179.4282684326172
-185.88845825195312
-192.07830810546875
-197.50192260742188
-201.82159423828125
-204.93247985839844
-206.86952209472653
-207.93801879882812
-208.4999847412109
-208.82043457031247
-209.39674377441406
-210.97686767578125
-213.919921875
-217.88690185546872
-222.09478759765625
-225.1422424316406
-225.3547821044922
-221.536865234375
-212.3377685546875
-195.73617553710935
-172.5306396484375
-146.80676269531247
-122.16353607177733
-103.33526611328125
-89.28079223632812
-72.00424194335938
-50.30996322631836
-27.282970428466797
-16.9345703125
-44.991455078125
-126.32361602783203
-267.4594421386719
-458.7387390136719
-668.1759033203125
-864.3826293945312
-1015.5514526367186
-1099.6546630859375
-1118.6779785156248
-1082.8433837890623
-1008.1251220703125
-909.9599609374999
-794.052734375
-664.8928833007812
-532.9834594726562
-414.9361267089844
-325.32461547851557
-272.2184143066406
-249.98883056640622
-239.99307250976562
-228.9618377685547
-211.1470489501953
-188.75463867187497
-172.53988647460935
-167.32119750976562
-171.1720733642578
-180.0040283203125
-187.22206115722653
-189.7330322265625
-188.21400451660156
-183.30371093749997
-175.75402832031247
-166.0450897216797
-154.25485229492185
-141.23678588867188
-128.4234619140625
-116.53854370117188
-105.65876770019531
-95.67152404785155
-86.26753997802734
-77.18606567382812
-68.27009582519531
-59.02113342285156
-48.644996643066406
-36.67721176147461
-22.9590950012207
-7.5775365829467765
9.109928131103514
26.72978973388672
44.92865753173828
63.382877349853516
81.81715393066405
100.05032348632811
117.9933624267578
135.62037658691406
152.96827697753906
170.07363891601562
186.96841430664062
203.60202026367188
219.8360595703125
235.5399475097656
250.59350585937497
264.93606567382807
278.56915283203125
291.5302734375
303.8894653320312
315.7030944824219
327.0149841308594
337.84790039062494
348.19268798828125
358.0150756835937
367.2583312988281
375.84564208984375
383.6843872070312
390.7142333984375
396.904541015625
402.23211669921875
406.68652343749994
410.247802734375
412.885498046875
414.5707702636719
415.2743835449219
414.96337890625
413.60369873046875
411.1665954589843
407.6309204101562
402.9896240234375
397.2490844726562
390.4264526367187
382.54986572265625
373.6502990722656
363.76239013671875
352.9251403808594
341.17895507812494
328.5677490234375
315.1399230957031
300.94628906249994
286.04071044921875
270.4838562011719
254.34091186523435
237.6807403564453
220.57696533203125
203.1045684814453
185.33871459960938
167.3555908203125
149.23052978515622
131.03662109374997
112.84693908691406
94.73367309570312
76.7665557861328
59.01412582397461
41.542625427246094
24.414888381958008
7.691300392150878
-8.5703763961792
-24.317058563232422
-39.500022888183594
-54.075096130371094
-68.00377655029295
-81.25169372558594
-93.78826904296875
-105.58744049072266
-116.62714385986328
-126.88995361328124
-136.36390686035156
-145.04141235351562
-152.91900634765625
-159.99967956542966
-166.29226684570312
-171.81088256835938
-176.57534790039062
-180.60794067382812
-183.93252563476562
-186.5779571533203
-188.57673645019528
-189.95858764648438
-190.75114440917966
-190.97799682617188
-190.65866088867188
-189.81954956054688
-188.4934387207031
-186.71163940429688
-184.50561523437497
-181.91030883789062
-178.9617156982422
-175.70591735839844
-172.19825744628906
-168.48130798339844
-164.58804321289062
-160.54360961914062
-156.3612060546875
-152.06134033203125
-147.67556762695312
-143.23348999023435
-138.76409912109375
-134.29742431640625
-129.8545227050781
-125.46391296386719
-121.16808319091797
-116.98825073242188
-112.92254638671875
-108.93511962890624
-104.94830322265625
-100.90074157714842
-96.76074218749999
-92.50923919677734
-88.14620971679688
-83.68067932128905
-79.12382507324219
-74.51288604736328
-69.91618347167969
-65.40061950683594
-61.03618621826172
-56.890090942382805
-52.99428558349609
-49.34373474121093
-45.90217590332031
-42.709190368652344
-39.93566131591796
-37.69721984863281
-35.9993896484375
-34.63736724853515
-33.18617630004883
-31.44327735900879
-29.529926300048825
-27.537643432617184
-25.374233245849606
-22.96742820739746
-20.325977325439453
-18.08187675476074
-17.678892135620114
-20.06113624572754
-25.328342437744137
-33.06532287597656
-42.50332260131836
-53.09097671508788
-64.4272994995117
-75.03953552246092
-82.15074920654295
-83.50689697265625
-77.60565948486327
-63.941322326660156
-42.97355270385742
-14.124912261962889
21.56313705444336
59.62943649291992
95.1910400390625
122.99681091308592
143.38839721679688
164.33303833007812
188.51739501953125
213.91830444335938
229.6940155029297
212.22869873046875
148.59140014648438
34.16798400878906
-128.35604858398438
-315.55911254882807
-504.11517333984375
-672.1397094726561
-793.5091552734374
-856.7295532226562
-861.5361938476562
-810.1511230468749
-714.7467041015625
-593.2381591796875
-457.8450927734375
-325.82144165039057
-217.530029296875
-139.10394287109375
-93.11692810058594
-74.10404205322264
-63.19931030273437
-50.62677001953125
-33.48126983642578
-13.122797012329102
0.3794856071472168
2.319498300552368
-5.3085503578186035
-18.198822021484375
-29.577404022216797
-36.1269416809082
-38.12689971923828
-36.40508270263672
-32.090633392333984
-25.51023292541504
-16.61498260498047
-6.393350601196288
3.7243320941925044
12.858068466186523
20.667102813720703
27.38237190246582
33.46567916870117
39.141937255859375
44.608497619628906
50.313335418701165
56.922969818115234
65.02441406249999
74.92051696777344
86.57133483886719
99.70312499999999
113.97190856933594
129.00869750976562
144.51675415039062
160.25140380859375
176.01199340820312
191.7018127441406
207.26867675781247
222.70632934570312
238.0648193359375
253.38519287109372
268.6614685058594
283.8150939941406
298.68780517578125
313.12347412109375
327.04248046875
340.414794921875
353.26458740234375
365.66113281249994
377.632080078125
389.1903686523437
400.3701171875
411.1725463867187
421.57318115234375
431.5330810546875
440.967041015625
449.7710266113281
457.87258911132807
465.2247009277343
471.79858398437494
477.58050537109375
482.54327392578125
486.65087890624994
489.8712768554687
492.1704711914062
493.52001953125
493.89196777343744
493.25036621093744
491.5662841796875
488.824951171875
485.02282714843744
480.17156982421875
474.2950744628906
467.4160461425781
459.561279296875
450.7661743164062
441.06787109375
430.5074768066406
419.13116455078125
406.985107421875
394.11795043945307
380.5850830078125
366.44604492187494
351.7633972167968
336.60418701171875
321.037109375
305.13116455078125
288.95690917968744
272.58489990234375
256.0851745605469
239.52764892578122
222.98165893554685
206.51499938964844
190.1933135986328
174.07968139648438
158.23391723632812
142.7124328613281
127.56851959228516
112.85212707519531
98.60914611816405
84.8809356689453
71.70536041259766
59.11725997924805
47.14850616455078
35.827957153320305
25.179616928100586
15.221275329589844
5.96493911743164
-2.582082986831665
-10.418094635009766
-17.547283172607422
-23.978763580322266
-29.726865768432617
-34.809497833251946
-39.24553298950195
-43.055572509765625
-46.262611389160156
-48.88941955566406
-50.958099365234375
-52.49034881591796
-53.50691604614258
-54.03135681152344
-54.092010498046875
-53.72005081176758
-52.947246551513665
-51.805767059326165
-50.32993698120117
-48.55786895751953
-46.531978607177734
-44.292747497558594
-41.87415313720703
-39.30293273925781
-36.60134506225586
-33.7952995300293
-30.913116455078125
-27.98151206970215
-25.022140502929688
-22.04913330078125
-19.07309341430664
-16.112457275390625
-13.195786476135252
-10.33821105957031
-7.534441471099853
-4.751163959503174
-1.9261652231216428
0.9895403981208801
4.020257949829102
7.182595252990723
10.492118835449217
13.950239181518555
17.531848907470703
21.161022186279297
24.694826126098633
27.98850440979004
30.932865142822266
33.47005462646484
35.60070037841797
37.31806945800781
38.59600067138671
39.378082275390625
39.5681037902832
39.09474945068359
37.92607116699218
36.02349090576172
33.33457946777344
29.883403778076172
25.768383026123047
21.197216033935547
16.622325897216797
12.576348304748533
9.44497299194336
7.433002471923827
6.452733039855957
6.113519191741943
6.020620822906494
5.961275100708008
5.6303300857543945
4.490923881530761
2.1922361850738525
-1.1823017597198486
-4.723450183868408
-6.616127014160156
-5.0831756591796875
0.8770365715026855
12.019742965698242
29.42929649353027
53.819175720214844
84.93276977539062
119.470947265625
151.14401245117188
174.0624542236328
184.45068359375
183.61785888671872
174.67620849609375
158.08560180664062
131.24771118164062
83.25070190429688
2.5708920955657955
-118.38139343261717
-282.513916015625
-473.54486083984375
-665.9573974609374
-828.8837890625
-928.8651123046874
-956.8001708984375
-917.8922729492186
-828.2861328125
-714.7701416015625
-587.8296508789062
-453.45721435546875
-320.2686462402344
-195.8736114501953
-97.17630767822266
-37.38986587524414
-15.769620895385742
-20.37481689453125
-34.80591583251953
-47.42889404296875
-56.08053588867187
-67.05652618408203
-84.68950653076172
-107.69083404541016
-131.69647216796875
-150.76141357421875
-162.20611572265625
-166.9014892578125
-166.4016876220703
-162.22560119628906
-155.50323486328125
-147.3944091796875
-139.47305297851562
-132.86727905273438
-127.86930084228516
-124.26290130615233
-121.51191711425781
-119.13320922851561
-116.76507568359375
-113.75514221191406
-109.24562072753906
-102.68246459960938
-93.85708618164062
-82.89128875732422
-70.16729736328125
-56.08369827270508
-41.0258560180664
-25.33077239990234
-9.27186393737793
6.975268363952637
23.337394714355465
39.81837463378906
56.47160339355469
73.3344497680664
90.43521118164062
107.71182250976562
125.01368713378906
142.20114135742188
159.14077758789062
175.75039672851562
192.0076446533203
207.9281768798828
223.560546875
238.94097900390625
254.09266662597656
269.01318359375
283.667724609375
297.9979858398437
311.9241638183594
325.3475341796875
338.1542053222656
350.2614440917969
361.6164245605469
372.1746520996094
381.9047546386718
390.7669067382812
398.7113342285156
405.689697265625
411.6541748046875
416.55499267578125
420.3421020507812
422.9722595214844
424.4104309082031
424.63610839843744
423.64434814453125
421.44317626953125
418.0535888671875
413.50073242187494
407.81433105468744
401.0282897949218
393.17987060546875
384.31225585937494
374.47338867187494
363.71386718749994
352.0878295898437
339.6566467285156
326.4884033203125
312.6575622558594
298.2441711425781
283.32946777343744
267.9958801269531
252.3277587890625
236.40997314453125
220.32624816894528
204.15838623046875
187.9853820800781
171.88394165039062
155.9297943115234
140.197021484375
124.75747680664061
109.68009185791014
95.0305404663086
80.87066650390624
67.25794219970703
54.244667053222656
41.877063751220696
30.195087432861328
19.231161117553707
9.011125564575195
-0.4442408084869385
-9.119294166564941
-17.001863479614254
-24.083879470825195
-30.363388061523438
-35.84387969970703
-40.533424377441406
-44.44629669189453
-47.603126525878906
-50.03011703491211
-51.76078796386718
-52.83299255371093
-53.28667449951172
-53.165225982666016
-52.51212692260742
-51.36796569824218
-49.770484924316406
-47.753738403320305
-45.3501091003418
-42.595924377441406
-39.530784606933594
-36.194679260253906
-32.62894058227539
-28.876609802246094
-24.985960006713867
-21.012462615966797
-17.012277603149414
-13.034665107727049
-9.11536693572998
-5.277780532836914
-1.5454084873199463
2.053847312927246
5.487407684326172
8.721376419067383
11.732587814331055
14.506393432617188
17.02684783935547
19.270893096923828
21.208595275878903
22.82291030883789
24.132049560546875
25.19454193115234
26.090892791748043
26.891414642333984
27.627124786376953
28.302650451660156
28.94587707519531
29.585786819458004
30.24781036376953
30.94007110595703
31.564155578613278
31.982242584228516
32.088809967041016
31.79935836791992
31.116935729980465
30.111816406249996
28.750032424926758
26.88855743408203
24.459806442260742
21.45212745666504
18.081809997558594
14.816545486450194
11.801556587219238
8.893721580505371
5.97749662399292
2.9389901161193843
-0.14916372299194333
-3.0099296569824214
-6.01190710067749
-10.236263275146484
-16.370494842529297
-24.720096588134766
-35.059974670410156
-46.37388610839843
-57.955970764160156
-69.6683578491211
-80.54763793945312
-88.68692016601562
-92.1519088745117
-88.81051635742186
-77.68659973144531
-59.76234436035156
-35.582664489746094
-4.885671615600586
31.356822967529297
71.37471008300781
110.79678344726561
142.00367736816406
161.40133666992188
168.59860229492188
165.1829833984375
156.0231475830078
137.94798278808594
103.15692138671874
44.910491943359375
-46.15495300292968
-168.83816528320312
-314.91921997070307
-475.69989013671875
-633.5888061523438
-772.9031982421875
-878.5335693359375
-932.763916015625
-928.4854736328125
-864.6060791015625
-749.6154174804688
-605.0926513671875
-452.4045104980468
-314.3703308105469
-207.52162170410156
-133.6977996826172
-88.61827087402344
-59.93320083618164
-35.23710250854492
-11.066692352294922
11.117128372192383
25.03864288330078
26.347631454467773
16.5792236328125
0.7764352560043335
-14.089119911193848
-24.00104331970215
-28.288787841796875
-27.423767089843746
-22.67704200744629
-15.004846572875975
-4.91497278213501
6.325661659240723
16.972808837890625
26.084918975830078
33.342586517333984
38.81365203857422
42.98926925659179
46.3554344177246
49.30293273925781
52.550331115722656
57.05802917480468
63.356182098388665
71.6655502319336
82.0051040649414
94.04983520507812
107.50051879882811
122.0611343383789
137.2382354736328
152.61724853515622
167.96728515625
183.12805175781247
198.07296752929688
212.8527069091797
227.4281311035156
241.7690887451172
255.8658447265625
269.60235595703125
282.875
295.5989990234375
307.6563720703125
319.0079345703125
329.6705627441406
339.6885986328125
349.173583984375
358.2249145507812
366.8824768066406
375.16668701171875
383.0670166015625
390.5392456054687
397.54772949218744
404.0361633300781
409.9217834472656
415.1578369140625
419.7141418457031
423.5655822753906
426.7094116210937
429.13052368164057
430.79812622070307
431.6841125488281
431.7527465820312
430.9631042480469
429.285888671875
426.6962280273437
423.1731262207031
418.71112060546875
413.31436157226557
406.9970397949218
399.78884887695307
391.7216491699219
382.8252258300781
373.132080078125
362.6748962402344
351.48806762695307
339.6107177734375
327.08306884765625
313.9455261230469
300.24420166015625
286.0310974121094
271.36309814453125
256.30145263671875
240.9087219238281
225.24694824218747
209.3790588378906
193.36788940429685
177.2747802734375
161.1583251953125
145.07395935058594
129.07479858398435
113.21273040771483
97.53894805908203
82.10322570800781
66.95301818847656
52.133827209472656
37.68851089477539
23.656770706176758
10.074988365173338
-3.025099277496338
-15.617881774902342
-27.68328857421875
-39.20629882812499
-50.176475524902344
-60.585098266601555
-70.4253158569336
-79.69368743896484
-88.38934326171874
-96.51423645019531
-104.07369995117188
-111.07614135742186
-117.53443145751952
-123.4681930541992
-128.90274047851562
-133.86578369140625
-138.3859405517578
-142.4923553466797
-146.21408081054688
-149.57911682128906
-152.61380004882812
-155.33966064453125
-157.7730255126953
-159.93089294433594
-161.83316040039062
-163.5021209716797
-164.9617462158203
-166.23719787597656
-167.35231018066406
-168.33303833007812
-169.21038818359375
-170.0129699707031
-170.76495361328122
-171.48321533203122
-172.17596435546875
-172.8502197265625
-173.51470947265622
-174.17910766601562
-174.85183715820312
-175.53768920898438
-176.23442077636716
-176.94464111328122
-177.68016052246094
-178.44195556640625
-179.22535705566406
-180.00570678710938
-180.72410583496094
-181.33004760742185
-181.78836059570312
-182.06504821777344
-182.13967895507812
-182.00128173828125
-181.6395568847656
-181.0946044921875
-180.46774291992188
-179.86883544921875
-179.41836547851562
-179.2027587890625
-179.2460174560547
-179.58871459960935
-180.26858520507812
-181.3048095703125
-182.74838256835938
-184.61141967773438
-186.88319396972656
-189.62475585937497
-192.89759826660156
-196.71340942382812
-201.05575561523438
-205.7637939453125
-210.53842163085938
-215.10881042480466
-219.09364318847656
-222.01077270507812
-223.5846710205078
-223.691650390625
-222.48059082031247
-220.50680541992188
-218.25355529785156
-216.02645874023435
-214.34637451171875
-213.8575744628906
-214.79879760742185
-216.86802673339844
-218.8367004394531
-218.63876342773438
-214.79687499999997
-206.30783081054685
-191.836669921875
-170.13232421875
-140.6388702392578
-105.90782165527342
-72.46646881103516
-47.47698974609375
-35.14116287231445
-32.7906608581543
-33.11759948730469
-32.328773498535156
-36.114192962646484
-62.34734344482422
-133.56661987304688
-266.6650390625
-460.618408203125
-689.4171752929688
-914.7095947265625
-1092.0806884765625
-1189.1762695312498
-1204.7581787109375
-1152.3250732421875
-1058.0275878906248
-948.2150268554686
-827.4459228515624
-697.0628662109374
-561.7738037109374
-430.9422912597656
-325.71795654296875
-261.94415283203125
-239.03921508789062
-242.7587890625
-254.44952392578125
-262.1158142089844
-264.31427001953125
-268.3233642578125
-279.02786254882807
-294.33352661132807
-309.7084045410156
-319.68365478515625
-321.7168273925781
-317.09271240234375
-307.7606201171875
-295.3498229980469
-281.375
-267.57385253906244
-255.14205932617188
-244.69047546386716
-236.36808776855466
-229.53125
-223.49652099609375
-217.90699768066403
-212.1787872314453
-205.54241943359375
-197.4882354736328
-187.57498168945312
-175.59761047363278
-161.80561828613278
-146.4631652832031
-129.86265563964844
-112.46688079833984
-94.6285629272461
-76.56849670410156
-58.48674774169922
-40.45612335205078
-22.481142044067383
-4.595763683319092
13.222304344177244
31.014865875244137
48.76365661621094
66.39639282226562
83.76386260986328
100.70129394531249
117.11915588378906
132.97756958007812
148.2891845703125
163.11624145507812
177.48095703125
191.3895568847656
204.87098693847656
217.9201202392578
230.50701904296875
242.58984375
254.0787353515625
264.8651428222656
274.872314453125
284.0443115234375
292.34588623046875
299.7590637207031
306.25244140625
311.78936767578125
316.33764648437494
319.86126708984375
322.33154296874994
323.7200012207031
323.98941040039057
323.1111450195312
321.0711364746094
317.8663330078125
313.51138305664057
308.0343322753906
301.4624633789062
293.8286437988281
285.17486572265625
275.5440673828125
264.9840087890625
253.546630859375
241.28297424316406
228.24725341796875
214.5010223388672
200.11106872558594
185.1492004394531
169.69320678710935
153.82374572753906
137.62420654296875
121.18038940429688
104.57820129394531
87.90291595458984
71.23859405517578
54.666728973388665
38.26589584350586
22.111408233642578
6.274425506591797
-9.176726341247557
-24.17604255676269
-38.66094207763672
-52.57173156738281
-65.8523178100586
-78.45191955566406
-90.3252716064453
-101.43234252929686
-111.73950195312499
-121.22024536132812
-129.8544921875
-137.62986755371094
-144.54071044921875
-150.58491516113278
-155.7637939453125
-160.08175659179688
-163.54696655273438
-166.17332458496094
-167.98049926757812
-168.99270629882812
-169.2394561767578
-168.75631713867188
-167.58526611328125
-165.7749786376953
-163.37788391113278
-160.4463348388672
-157.03213500976562
-153.18603515625
-148.95529174804688
-144.38540649414062
-139.51889038085938
-134.39427185058594
-129.05148315429688
-123.53334045410156
-117.88314819335936
-112.144287109375
-106.36302947998047
-100.58738708496094
-94.86593627929688
-89.24829864501953
-83.77375030517578
-78.47034454345702
-73.36469268798828
-68.48419189453125
-63.85895919799805
-59.51797866821289
-55.48291015625
-51.76551055908203
-48.374961853027344
-45.3209114074707
-42.61454772949218
-40.272151947021484
-38.28855895996094
-36.62982177734375
-35.23929214477539
-34.03725814819336
-32.96713256835937
-32.00461196899413
-31.115131378173825
-30.238246917724606
-29.301115036010742
-28.254379272460934
-27.133203506469727
-26.087364196777344
-25.285507202148438
-24.833419799804688
-24.76866912841797
-25.04166603088379
-25.66002082824707
-26.752887725830078
-28.376337051391598
-30.44801139831543
-32.70903778076172
-34.83287811279297
-36.73860168457031
-38.736331939697266
-41.15959548950195
-44.00934600830078
-47.252349853515625
-50.855171203613274
-55.047569274902344
-60.41677093505859
-67.13798522949217
-74.74464416503906
-82.58523559570312
-90.29100799560545
-97.47424316406249
-103.75692749023438
-108.55517578125
-110.74156951904295
-109.53958129882812
-104.54902648925781
-95.49342346191405
-82.16679382324217
-64.38487243652344
-42.05406188964844
-15.111940383911131
16.308597564697266
50.07698440551758
81.60826110839844
106.60317993164061
120.71086120605469
125.56467437744139
129.34381103515625
135.34063720703125
143.83761596679688
143.475341796875
110.18587493896484
27.916843414306637
-113.68258666992188
-307.370849609375
-520.97509765625
-720.8377685546875
-870.2039794921875
-944.1529541015625
-947.3311157226562
-892.8653564453125
-802.8418579101562
-698.6669921874999
-582.1611938476562
-454.8404541015625
-322.65734863281244
-196.4977264404297
-97.5615768432617
-40.595413208007805
-24.717899322509762
-35.515560150146484
-54.24079132080078
-68.45342254638672
-76.31078338623047
-85.19425964355469
-100.11774444580077
-119.96424865722656
-140.26591491699216
-154.7433624267578
-160.73585510253906
-159.29035949707028
-151.98495483398438
-140.58921813964844
-126.53823852539061
-111.06988525390625
-95.87150573730469
-82.16419982910156
-70.20723724365233
-59.78219604492187
-50.380592346191406
-41.572750091552734
-33.130760192871094
-24.601282119750977
-15.322757720947266
-4.8488731384277335
7.036130428314209
20.214515686035153
34.25008773803711
48.82933807373046
63.762298583984375
78.8537368774414
94.00443267822266
109.14302062988281
124.17446899414062
139.12257385253906
154.08923339843747
169.13414001464844
184.32803344726562
199.67904663085935
215.09173583984375
230.47232055664062
245.7150115966797
260.75762939453125
275.6227722167969
290.3104553222656
304.79254150390625
319.04467773437494
333.0201110839844
346.68310546875
360.0274353027344
372.99908447265625
385.4979248046875
397.4342041015625
408.7129211425781
419.2593688964844
429.0382080078125
438.00769042968744
446.1215209960937
453.33630371093744
459.599609375
464.8676147460937
469.1109313964844
472.29736328124994
474.39175415039057
475.3603820800781
475.1674499511718
473.7925720214843
471.2366943359375
467.50341796874994
462.6006774902343
456.5420227050781
449.34368896484375
441.0325927734375
431.64739990234375
421.2276611328125
409.8134765625
397.45080566406244
384.18988037109375
370.0872802734375
355.2075805664062
339.61846923828125
323.39056396484375
306.599853515625
289.32550048828125
271.64843749999994
253.65179443359375
235.41839599609372
217.0292510986328
198.56448364257812
180.10246276855466
161.71832275390625
143.4857177734375
125.47622680664062
107.75801086425781
90.39730834960938
73.4584503173828
57.002029418945305
41.08433532714844
25.756584167480465
11.063478469848631
-2.955787420272827
-16.266874313354492
-28.842386245727536
-40.66145706176757
-51.70879745483398
-61.974159240722656
-71.44996643066406
-80.13155364990234
-88.01910400390625
-95.1180419921875
-101.43890380859375
-106.99855041503906
-111.81903839111328
-115.92736053466795
-119.35699462890624
-122.1450424194336
-124.33013916015624
-125.95391845703124
-127.05841064453125
-127.68284606933594
-127.86560058593749
-127.64286804199217
-127.04634857177733
-126.10969543457031
-124.86936950683594
-123.36000061035158
-121.61762237548828
-119.68109130859375
-117.58721160888672
-115.37419128417969
-113.08454895019531
-110.75515747070312
-108.41790771484375
-106.10211944580078
-103.82791137695312
-101.61146545410156
-99.47015380859375
-97.41918182373047
-95.47044372558592
-93.63311004638672
-91.90790557861328
-90.29570770263672
-88.80536651611328
-87.43556213378905
-86.17772674560547
-85.00122833251953
-83.84066009521484
-82.63575744628906
-81.34037780761719
-79.91168975830078
-78.31884002685547
-76.54790496826172
-74.58797454833983
-72.46322631835938
-70.26205444335936
-68.08245849609374
-66.03318786621094
-64.21389007568358
-62.665733337402344
-61.4117317199707
-60.4659309387207
-59.86204528808594
-59.661758422851555
-59.923835754394524
-60.69361877441406
-61.98508834838867
-63.80353546142578
-66.11760711669922
-68.8751220703125
-71.96155548095703
-75.13192749023438
-78.02110290527344
-80.11398315429688
-80.94132232666016
-80.26576232910156
-78.15101623535155
-74.90838623046875
-70.79318237304686
-65.94374084472656
-60.68095016479492
-55.61609268188476
-51.33210372924805
-47.95783996582031
-44.644805908203125
-39.84900665283203
-32.3559684753418
-21.195276260375973
-5.152838230133056
17.096845626831055
46.74150085449218
82.07566833496094
117.4999542236328
147.4735107421875
168.794921875
185.07025146484375
203.5436096191406
225.06858825683594
241.59799194335938
232.8503723144531
177.4342803955078
64.95714569091797
-101.61363220214844
-300.6976013183594
-505.97442626953125
-692.2854614257812
-837.6644897460938
-933.406982421875
-973.8121948242188
-959.95556640625
-898.76416015625
-793.9948730468749
-658.4249267578124
-505.94256591796875
-353.035400390625
-223.4499053955078
-127.97055053710938
-69.65003204345703
-42.69176483154297
-28.686473846435543
-17.738447189331055
-7.157352924346924
1.535693883895874
-0.24122667312622068
-14.936031341552733
-38.4147605895996
-65.34243774414061
-88.73777770996094
-105.08596801757812
-114.65830993652342
-118.13156127929688
-116.5191421508789
-110.73137664794922
-101.68612670898438
-90.95079803466795
-80.31078338623045
-70.78642272949219
-62.56103515624999
-55.40192031860351
-48.82571792602538
-42.31016159057617
-35.29288101196289
-27.080360412597656
-16.94663619995117
-4.512470245361328
10.15986442565918
26.776193618774414
44.85073089599609
63.840286254882805
83.33794403076172
103.04095458984375
122.70552062988281
142.21878051757812
161.54815673828125
180.66189575195312
199.5677947998047
218.25949096679688
236.64526367187497
254.61703491210935
272.0538024902344
288.8206787109375
304.8500061035156
320.12371826171875
334.661376953125
348.54559326171875
361.84780883789057
374.586181640625
386.7578125
398.33123779296875
409.24725341796875
419.45181274414057
428.87481689453125
437.42349243164057
445.03240966796875
451.66064453125
457.28240966796875
461.8923034667969
465.4789733886719
468.0187072753906
469.48809814453125
469.8608093261718
469.113525390625
467.23431396484375
464.2166748046875
460.0599365234375
454.77673339843744
448.39013671875
440.9358520507812
432.4652709960937
423.03253173828125
412.6906127929687
401.49591064453125
389.5055847167969
376.7793273925781
363.3822326660156
349.37896728515625
334.83319091796875
319.81280517578125
304.38916015625
288.6365051269531
272.63287353515625
256.457275390625
240.18782043457028
223.9031066894531
207.68043518066406
191.59403991699216
175.7154083251953
160.11207580566406
144.8465576171875
129.97682189941406
115.55618286132812
101.63270568847656
88.25115966796874
75.45274353027344
63.274078369140625
51.74779510498047
40.90203857421874
30.758968353271484
21.334796905517578
12.639665603637694
4.675767898559569
-2.5609469413757324
-9.07922649383545
-14.893943786621094
-20.023990631103516
-24.490379333496094
-28.31686401367187
-31.52803802490234
-34.14915084838867
-36.20904541015625
-37.73960876464844
-38.774681091308594
-39.352569580078125
-39.514530181884766
-39.3031883239746
-38.76445388793945
-37.94337844848633
-36.88304138183594
-35.62727737426757
-34.21617126464844
-32.68247985839844
-31.05343627929687
-29.349756240844727
-27.58758544921875
-25.786888122558594
-23.969524383544922
-22.15312385559082
-20.355316162109375
-18.595397949218746
-16.89276695251465
-15.272910118103026
-13.761115074157715
-12.369376182556152
-11.09593677520752
-9.930368423461914
-8.86169719696045
-7.883642196655273
-7.00039529800415
-6.2167534828186035
-5.529828071594238
-4.938465118408203
-4.439171314239502
-4.035421371459961
-3.7374167442321773
-3.537545204162597
-3.4028739929199214
-3.2700116634368896
-3.0560331344604488
-2.689882516860962
-2.1430897712707515
-1.4035861492156982
-0.4387783110141754
0.7643570899963379
2.232971429824829
3.979264259338379
5.91218376159668
7.9393272399902335
9.983912467956543
11.958261489868162
13.847908020019531
15.705124855041504
17.48974609375
19.075231552124023
20.433063507080078
21.536008834838864
22.549480438232422
23.891288757324215
25.650123596191403
27.6573371887207
29.767063140869137
31.821245193481445
33.706897735595696
35.450836181640625
36.66003036499023
36.27586364746094
33.76030349731445
29.028596878051754
22.1723518371582
13.951345443725584
5.159798622131348
-3.8874216079711914
-12.48737907409668
-18.974872589111328
-21.99699211120605
-20.26073455810547
-12.486471176147461
0.9675228595733643
19.548580169677734
43.83323669433594
74.02792358398438
109.21368408203124
146.13731384277344
178.57276916503906
200.55677795410156
209.93533325195312
211.18551635742188
210.72735595703122
211.03784179687497
208.35137939453125
185.822509765625
125.02809143066405
14.378625869750975
-149.98783874511716
-347.69036865234375
-547.7138671875
-717.2694702148438
-822.3981323242188
-854.0186157226562
-819.1945800781249
-732.5921020507812
-618.7160034179688
-491.9912719726562
-359.6144104003906
-231.3655548095703
-115.84116363525389
-23.097434997558594
36.6281509399414
62.9453010559082
63.930931091308594
51.6243896484375
40.35095596313476
38.06532669067382
46.86199569702148
62.764347076416016
76.57339477539062
83.03734588623047
79.00479125976562
66.36309814453124
52.764198303222656
42.66722869873047
38.96413040161133
41.9683837890625
48.06451416015625
54.952590942382805
61.32196044921875
66.40399932861328
70.73771667480469
74.59152221679688
77.91895294189453
80.96625518798828
84.10064697265625
87.9337692260742
93.1739273071289
100.21698760986328
109.20249938964844
120.02257537841797
132.3890380859375
145.95358276367188
160.2673645019531
174.9407501220703
189.71719360351562
204.41969299316406
218.9734191894531
233.37380981445312
247.59530639648438
261.6226806640625
275.4486083984375
288.9646606445312
302.0473327636719
314.59210205078125
326.47998046875
337.66778564453125
348.17138671875
358.035400390625
367.36578369140625
376.25836181640625
384.7515563964844
392.8634948730469
400.582275390625
407.8614501953125
414.66009521484375
420.91824340820307
426.5504455566406
431.50787353515625
435.7641296386719
439.2978210449218
442.1087646484375
444.1864013671875
445.5037231445312
446.03753662109375
445.7593688964844
444.6357727050781
442.64532470703125
439.772216796875
436.0048522949219
431.3479614257812
425.81591796874994
419.4327087402344
412.2378845214844
404.27288818359375
395.5770263671875
386.1927490234375
376.16177368164057
365.5268859863281
354.33563232421875
342.6353454589844
330.4722900390625
317.8974304199219
304.9653625488281
291.73358154296875
278.263916015625
264.6188659667969
250.86041259765622
237.05184936523438
223.2567138671875
209.53648376464844
195.95065307617185
182.5558319091797
169.40521240234375
156.54905700683594
144.0345764160156
131.90444946289062
120.1972198486328
108.94876098632812
98.1917266845703
87.95550537109375
78.26599121093749
69.14405822753906
60.60539627075195
52.66082382202148
45.31584167480468
38.57073211669922
32.421226501464844
26.858070373535153
21.867738723754883
17.433792114257812
13.537296295166016
10.15827751159668
7.275540351867676
4.865351676940918
2.9018285274505615
1.356536626815796
0.1986313909292221
-0.6051508784294128
-1.0914289951324463
-1.3001741170883179
-1.2733803987503052
-1.0529139041900633
-0.6789489984512329
-0.19013577699661255
0.37512898445129395
0.9815713167190552
1.597927451133728
2.197920083999634
2.7628805637359615
3.2746510505676265
3.7121868133544917
4.055978298187256
4.287672996520996
4.390165328979492
4.351377964019775
4.156773567199707
3.7852783203125
3.2204513549804683
2.4495608806610107
1.465433359146118
0.27315229177474976
-1.1231300830841064
-2.7221269607543945
-4.518007278442383
-6.508056640625
-8.685443878173828
-11.031194686889648
-13.535263061523436
-16.19620704650879
-19.002206802368164
-21.94097900390625
-24.975612640380856
-28.031669616699215
-31.0468635559082
-33.968162536621094
-36.7432746887207
-39.34440612792969
-41.747966766357415
-43.942378997802734
-45.97731018066406
-47.93223571777343
-49.89900207519531
-51.98563003540039
-54.2501220703125
-56.73966217041015
-59.513050079345696
-62.573814392089844
-65.94892120361328
-69.69925689697266
-73.8338394165039
-78.4665298461914
-83.74308013916014
-89.56255340576172
-95.82028198242188
-102.3911361694336
-108.95234680175781
-115.39178466796875
-121.58245086669922
-126.8592300415039
-130.76394653320312
-133.5009307861328
-135.36863708496094
-137.20423889160156
-139.94351196289062
-143.41810607910156
-147.5703887939453
-153.1153564453125
-160.13722229003906
-167.835205078125
-174.7736358642578
-178.1501007080078
-175.6046600341797
-166.42349243164062
-149.63914489746094
-124.50914001464845
-91.3185806274414
-52.83052444458008
-15.157575607299805
16.245895385742188
37.62497329711914
48.43423080444336
51.398380279541016
43.0180778503418
16.004804611206055
-36.837776184082024
-124.6225357055664
-248.59234619140622
-403.00970458984375
-576.55078125
-749.574951171875
-898.0281982421875
-998.3049316406249
-1040.2620849609375
-1025.4912109375
-966.6849365234375
-883.84130859375
-785.1441040039061
-675.8237304687499
-563.6159057617188
-457.3464965820312
-373.87088012695307
-325.51263427734375
-311.06341552734375
-318.48529052734375
-331.768798828125
-341.0299987792969
-346.11456298828125
-353.7872924804687
-368.95437622070307
-390.3500061035156
-412.96008300781244
-430.96536254882807
-441.6934509277343
-445.59515380859375
-443.8754577636718
-437.86767578124994
-428.43121337890625
-416.6567077636718
-404.32568359375
-392.6377868652344
-382.0592041015625
-372.62554931640625
-363.9493103027344
-355.73794555664057
-347.8958129882812
-340.0673522949219
-331.680419921875
-322.41644287109375
-312.162841796875
-300.9904479980469
-289.20776367187494
-277.02886962890625
-264.5728759765625
-252.01356506347656
-239.47016906738278
-226.98789978027344
-214.59030151367188
-202.2386474609375
-189.85215759277344
-177.39236450195312
-164.8282928466797
-152.12478637695312
-139.29640197753906
-126.36923217773438
-113.3743896484375
-100.36193847656249
-87.36598968505858
-74.41527557373045
-61.546463012695305
-48.79724884033203
-36.21372985839844
-23.848901748657227
-11.75337028503418
0.019728660583496094
11.40838050842285
22.350765228271484
32.782493591308594
42.63843154907226
51.86696624755859
60.4217643737793
68.25771331787108
75.3352279663086
81.61636352539061
87.06592559814453
91.65558624267577
95.36174011230467
98.16084289550781
100.03095245361328
100.95286560058594
100.910400390625
99.89343261718749
97.89790344238281
94.92484283447266
90.98079681396484
86.07872009277344
80.2386474609375
73.48756408691406
65.85894012451172
57.39166259765625
48.12918472290038
38.119503021240234
27.414693832397457
16.07018280029297
4.144687175750732
-8.300477981567381
-21.20136833190918
-34.49081802368164
-48.0997200012207
-61.95775604248047
-75.99325561523438
-90.13421630859375
-104.30863952636719
-118.44445037841795
-132.47120666503906
-146.32150268554688
-159.93023681640625
-173.23512268066406
-186.17758178710938
-198.70191955566406
-210.75662231445312
-222.2947540283203
-233.27291870117185
-243.65118408203125
-253.3939514160156
-262.469970703125
-270.8529968261719
-278.5227355957031
-285.46417236328125
-291.6683349609375
-297.13201904296875
-301.8580627441406
-305.85479736328125
-309.1357727050781
-311.7187194824219
-313.6244201660156
-314.876220703125
-315.4996032714844
-315.52227783203125
-314.97521972656244
-313.89208984375
-312.30865478515625
-310.2637634277344
-307.7996826171875
-304.9609680175781
-301.79376220703125
-298.3441162109375
-294.65563964843744
-290.7715759277344
-286.7356262207031
-282.5856628417969
-278.35302734375
-274.0617980957031
-269.7294616699219
-265.37506103515625
-261.02148437499994
-256.6895446777344
-252.39630126953125
-248.158203125
-243.99246215820312
-239.92323303222656
-235.98204040527344
-232.1915740966797
-228.56265258789062
-225.09390258789062
-221.77340698242188
-218.59642028808594
-215.5670166015625
-212.69052124023438
-209.97042846679688
-207.40298461914062
-204.978271484375
-202.69644165039062
-200.5718994140625
-198.60499572753906
-196.77215576171875
-195.010498046875
-193.2174835205078
-191.30905151367188
-189.23040771484375
-186.9518127441406
-184.46206665039062
-181.74073791503906
-178.78187561035156
-175.6068572998047
-172.27330017089844
-168.88011169433594
-165.5244445800781
-162.2748107910156
-159.17105102539062
-156.22470092773438
-153.41445922851562
-150.81834411621094
-148.636474609375
-146.95709228515625
-145.77413940429688
-144.87207031249997
-143.80563354492188
-142.3849182128906
-140.6832275390625
-138.7431945800781
-136.47149658203122
-133.7210693359375
-130.4344482421875
-127.23760986328125
-125.5537643432617
-126.38100433349608
-130.04669189453122
-136.2227325439453
-144.02207946777344
-152.9364471435547
-162.57284545898435
-171.45237731933594
-176.81341552734375
-175.88790893554688
-166.41920471191406
-147.68803405761716
-120.80295562744139
-86.03880310058592
-43.360328674316406
5.1898956298828125
56.377788543701165
104.48629760742188
140.60079956054688
160.3181915283203
162.90928649902344
148.2931671142578
123.3960723876953
90.52782440185547
43.065689086914055
-25.27709197998047
-128.929443359375
-277.8551025390625
-461.6102905273437
-660.0518798828125
-840.3684082031249
-965.214599609375
-1015.5740966796875
-988.1394042968749
-892.2091674804686
-751.745849609375
-592.1105957031249
-433.3118286132812
-295.8667297363281
-191.9154510498047
-121.41132354736328
-80.49219512939452
-56.96372985839843
-38.102745056152344
-20.750164031982422
-6.554821968078612
-1.4456990957260132
-9.741678237915037
-29.32513046264648
-53.95164108276367
-76.04356384277344
-91.52175903320312
-99.65646362304686
-101.00591278076172
-96.89360046386719
-88.05229949951172
-75.13204193115234
-60.00350570678711
-44.8956298828125
-31.090404510498043
-19.125593185424805
-8.889700889587402
0.11210799217224121
8.162148475646973
15.548900604248045
22.919902801513672
31.168163299560543
40.966156005859375
52.5543212890625
65.81005859374999
80.31526947021484
95.62264251708984
111.4500961303711
127.56675720214844
143.75181579589844
159.86911010742188
175.84616088867188
191.66491699218747
207.41583251953125
223.22085571289062
239.12196350097656
255.11947631835938
271.12371826171875
286.96173095703125
302.53466796875
317.80303955078125
332.76776123046875
347.48937988281244
361.9974365234375
376.27850341796875
390.3355407714844
404.1797180175781
417.79534912109375
431.149658203125
444.1679382324219
456.7311706542968
468.7467651367187
480.14947509765625
490.89404296874994
500.9591979980468
510.3099365234375
518.8972778320311
526.67431640625
533.59375
539.6134033203125
544.6988525390625
548.8069458007812
551.887451171875
553.9027099609375
554.8271484375
554.6505737304686
553.3803100585938
551.0239257812499
547.5880737304686
543.0879516601562
537.5454711914062
530.9884033203125
523.4502563476562
514.9654541015625
505.5682983398437
495.30032348632807
484.21002197265625
472.35083007812494
459.78210449218744
446.56622314453125
432.7679443359375
418.4554443359375
403.6990051269531
388.5699768066406
373.14013671875
357.48095703125
341.6632385253906
325.7575378417969
309.8339538574218
293.96157836914057
278.2088928222656
262.64251708984375
247.3262939453125
232.3223876953125
217.69027709960935
203.4847412109375
189.75579833984375
176.54803466796875
163.8992004394531
151.8424072265625
140.40621948242185
129.61300659179688
119.48004913330078
110.02045440673828
101.24237060546875
93.14972686767578
85.74285888671875
79.0163803100586
72.95953369140625
67.55754089355469
62.79026794433594
58.6336669921875
55.06095886230469
52.042823791503906
49.54901885986328
47.54869842529297
46.00981140136718
44.899112701416016
44.182682037353516
43.82442092895508
43.78643798828125
44.02969360351562
44.5121955871582
45.192047119140625
46.02976989746094
46.98649978637695
48.025703430175774
49.11621856689453
50.23057174682617
51.34637451171875
52.44966506958008
53.527427673339844
54.56567382812499
55.55410385131836
56.48260879516601
57.340545654296875
58.12100601196289
58.81550979614258
59.41028594970703
59.89694595336914
60.271751403808594
60.53350830078124
60.69067382812499
60.75347900390625
60.729400634765625
60.62779998779296
60.45922088623047
60.235015869140625
59.973472595214844
59.69070053100586
59.3918342590332
59.090450286865234
58.80458068847656
58.57062911987304
58.45901489257812
58.53277587890625
58.83834838867187
59.41547393798828
60.289894104003906
61.470283508300774
62.96047973632812
64.72984313964844
66.68055725097656
68.70327758789061
70.67928314208984
72.49888610839844
74.10816955566405
75.46351623535156
76.52877807617188
77.2483139038086
77.54451751708984
77.35505676269531
76.62620544433594
75.33049774169922
73.45091247558594
71.00943756103516
68.05783081054686
64.71760559082031
61.22864532470703
57.91448211669922
55.24066162109375
53.64326858520508
53.352142333984375
54.33212661743163
56.298377990722656
58.972816467285156
62.17657470703124
65.63357543945312
68.81551361083984
71.17830657958984
72.58477783203124
73.76920318603516
76.09986877441405
80.81483459472656
89.02754211425781
101.81827545166014
120.41941833496094
146.324462890625
177.96859741210938
209.7118225097656
236.12498474121094
252.16458129882812
260.0119323730469
269.6783752441406
284.378662109375
300.91705322265625
302.79949951171875
261.44915771484375
159.26193237304685
-8.629034996032715
-226.4935150146484
-459.0361633300781
-670.8965454101562
-831.3537597656249
-924.7880859374999
-950.4935302734374
-916.2156982421874
-833.8778076171874
-713.0947265625
-568.46240234375
-414.44830322265625
-269.2347412109375
-155.19622802734375
-77.9864501953125
-38.51783752441406
-30.382320404052734
-35.67424774169922
