Lead I
33.85931396484375
36.70123291015625
39.317806243896484
41.63280487060546
43.58794403076172
45.10512161254882
46.079994201660156
46.48256301879883
46.3789939880371
45.91893768310547
45.3306655883789
44.75881576538086
44.242210388183594
43.863922119140625
43.80284118652344
44.20129013061523
45.01161193847656
45.83086395263672
45.96624755859375
44.91874694824218
42.54589843749999
38.850894927978516
33.7939453125
27.236179351806637
19.27165412902832
10.791025161743162
3.2919130325317383
-2.145758628845215
-4.891510963439941
-4.5256099700927725
-0.9207663536071777
7.470188140869141
22.245590209960938
42.42205810546875
67.13479614257811
93.77406311035155
118.24610900878906
140.27569580078122
158.64189147949216
172.95904541015625
187.7222442626953
205.8281707763672
229.11723327636716
255.6490020751953
272.7307434082031
261.54409790039057
205.01730346679688
93.77932739257812
-66.81239318847656
-255.707275390625
-445.94671630859375
-611.9696044921875
-733.4918212890624
-800.2464599609375
-809.440673828125
-762.4681396484374
-668.0655517578124
-543.0643310546875
-408.5599060058594
-288.7005004882812
-202.76797485351562
-154.965576171875
-138.38876342773438
-137.93780517578125
-136.21827697753906
-126.10868072509764
-108.7605972290039
-89.80729675292969
-77.22579956054688
-73.17970275878905
-74.93490600585938
-78.6276397705078
-79.84916687011719
-77.04415893554688
-71.09837341308594
-63.114688873291016
-54.36476135253906
-45.751739501953125
-37.89138412475585
-31.57992553710937
-27.576898574829098
-26.140962600708004
-27.077228546142578
-30.01862525939941
-34.474430084228516
-39.952980041503906
-45.97180938720703
-51.95717620849609
-57.355621337890625
-61.853713989257805
-65.3409423828125
-67.80168914794922
-69.28913879394531
-69.83645629882812
-69.4654312133789
-68.25956726074219
-66.33360290527344
-63.79164886474609
-60.718997955322266
-57.166328430175774
-53.18264389038086
-48.85558319091797
-44.311599731445305
-39.69062042236328
-35.09744644165039
-30.58878135681152
-26.19175338745117
-21.922847747802734
-17.79601287841797
-13.813758850097656
-9.952040672302246
-6.162206172943115
-2.394388437271118
1.3962934017181394
5.245844841003418
9.181333541870117
13.23971939086914
17.465984344482422
21.908935546875
26.61802291870117
31.62411880493164
36.939529418945305
42.56816864013672
48.50724029541015
54.748374938964844
61.27709197998047
68.06592559814452
75.07730865478514
82.27696990966797
89.63363647460938
97.11758422851562
104.70004272460938
112.34632873535156
120.01841735839842
127.67884826660156
135.2898406982422
142.8150634765625
150.21954345703125
157.4676055908203
164.52412414550778
171.3562316894531
177.93218994140625
184.22238159179688
190.1991271972656
195.8336944580078
201.09738159179685
205.96273803710938
210.40316772460935
214.39413452148435
217.91340637207028
220.94021606445312
223.45582580566406
225.44493103027344
226.89511108398438
227.79693603515622
228.14385986328122
227.93177795410153
227.15927124023438
225.8280029296875
223.94232177734372
221.50895690917966
218.5371398925781
215.0384521484375
211.02694702148435
206.51913452148438
201.53363037109375
196.09074401855466
190.21249389648435
183.92269897460935
177.24673461914062
170.21163940429688
162.84555053710938
155.17749023437497
147.23731994628906
139.05560302734372
130.6634979248047
122.09251403808594
113.37432098388672
104.54037475585938
95.6218490600586
86.64955139160156
77.6536865234375
68.66381835937499
59.70862579345703
50.81549835205078
42.01051712036133
33.31842041015625
24.76251411437988
16.364707946777344
8.145415306091309
0.12338685989379881
-7.684216499328613
-15.261743545532225
-22.595064163208008
-29.671539306640625
-36.48003387451172
-43.01097869873047
-49.256233215332024
-55.20904541015624
-60.864051818847656
-66.21713256835938
-71.26541900634764
-76.00724792480469
-80.44205474853514
-84.57035827636719
-88.39376068115234
-91.91474914550781
-95.13665771484375
-98.06368255615234
-100.70066833496094
-103.05323028564452
-105.12757873535156
-106.93032836914061
-108.46839904785156
-109.74905395507812
-110.77986145019531
-111.56865692138672
-112.12353515625
-112.4526901245117
-112.56433105468749
-112.4668197631836
-112.16860961914062
-111.67821502685547
-111.00414276123045
-110.15467834472656
-109.13785552978516
-107.9616012573242
-106.6337432861328
-105.16213989257812
-103.55474853515624
-101.81938934326172
-99.9638214111328
-97.99595642089844
-95.92382049560547
-93.75558471679688
-91.4996871948242
-89.16425323486328
-86.75712585449219
-84.28630065917969
-81.75981140136719
-79.18571472167969
-76.57221221923828
-73.92716979980469
-71.25808715820312
-68.57293701171875
-65.88002014160156
-63.18761444091796
-60.5040397644043
-57.837226867675774
-55.194583892822266
-52.58359146118164
-50.01176452636719
-47.486045837402344
-45.012935638427734
-42.59843444824219
-40.248046875
-37.96763229370117
-35.763404846191406
-33.64140701293945
-31.607530593872067
-29.667041778564453
-27.82438850402832
-26.08403778076172
-24.45027732849121
-22.926361083984375
-21.5147705078125
-20.216794967651367
-19.032529830932617
-17.96262741088867
-17.008243560791016
-16.169631958007812
-15.446484565734862
-14.838199615478516
-14.343508720397947
-13.962029457092283
-13.694002151489258
-13.537376403808594
-13.48796272277832
-13.54072093963623
-13.689719200134277
-13.928812026977537
-14.252062797546385
-14.651493072509766
-15.117055892944336
-15.639862060546875
-16.212265014648438
-16.82703399658203
-17.477012634277344
-18.152753829956055
-18.841718673706055
-19.53147506713867
-20.211021423339844
-20.869400024414062
-21.496475219726562
-22.08056640625
-22.608165740966797
-23.070713043212887
-23.46471405029297
-23.790555953979492
-24.052495956420895
-24.250160217285156
-24.375646591186523
-24.42327308654785
-24.390422821044922
-24.268161773681637
-24.0455322265625
-23.700790405273434
-23.195674896240234
-22.505367279052734
-21.61978530883789
-20.530784606933594
-19.238773345947266
-17.737651824951172
-16.00733757019043
-14.041336059570312
-11.847293853759764
-9.427290916442871
-6.7927703857421875
-3.945464611053467
-0.8659982681274414
2.4123597145080566
5.811961650848388
9.232532501220701
12.51780319213867
15.54249095916748
18.243389129638672
20.507736206054684
22.206848144531246
23.312116622924805
23.84116554260254
23.930475234985348
23.881267547607422
23.860023498535153
23.897924423217773
24.117126464843746
24.583160400390625
25.213010787963867
25.895423889160153
26.24386596679687
25.64922714233398
23.904190063476562
21.12890815734863
17.445098876953125
13.220091819763184
9.0202054977417
5.409259319305419
3.3795461654663086
4.239068984985352
8.617630004882812
16.349536895751953
27.210235595703125
40.80780029296874
56.45174407958984
74.68171691894531
95.739990234375
117.89376831054688
140.9473114013672
163.64247131347656
183.1493377685547
200.17634582519528
213.96376037597656
224.39328002929688
236.27239990234372
252.94317626953125
276.8963623046875
306.9820251464844
331.71130371093744
332.2070007324219
288.5800476074219
187.78143310546872
31.48773193359375
-160.15954589843747
-354.2843933105469
-518.5768432617186
-629.339599609375
-677.2712402343749
-671.0239257812499
-623.921142578125
-547.8797607421875
-456.9544372558594
-358.2369079589844
-260.6944580078125
-179.39634704589844
-119.66217041015625
-83.23097229003906
-65.4776611328125
-51.59025192260742
-34.55559539794922
-13.308801651000977
10.021747589111328
27.370361328125
35.577308654785156
36.664466857910156
33.42759704589844
30.273056030273434
29.764991760253906
31.740230560302734
35.63005828857422
40.73756408691406
46.37109375
52.00946426391601
57.09806060791015
60.90180587768555
62.6884422302246
62.26795959472656
59.83251953125
55.65252685546874
50.21588134765624
44.052268981933594
37.56156158447265
31.225406646728512
25.530174255371094
20.69822120666504
16.82455062866211
13.94009017944336
11.947936058044434
10.76773929595947
10.352724075317383
10.589908599853516
11.360727310180664
12.582801818847654
14.149514198303223
15.971457481384277
17.962947845458984
19.984994888305664
21.92805671691894
23.722457885742188
25.30908203125
26.66950225830078
27.803501129150387
28.70538330078125
29.396808624267575
29.926959991455078
30.34037399291992
30.68792343139648
31.017650604248047
31.363483428955075
31.7745304107666
32.30744934082031
33.020877838134766
33.982364654541016
35.24120330810547
36.82668685913086
38.76247406005859
41.0601921081543
43.72168350219726
46.746345520019524
50.12008285522461
53.814910888671875
57.80699157714844
62.074165344238274
66.59375
71.34657287597656
76.3073043823242
81.44395446777344
86.72393798828125
92.11349487304688
97.57941436767577
103.08999633789062
108.61241149902344
114.11264038085936
119.55818939208984
124.91746520996094
130.16038513183594
135.25848388671875
140.18130493164062
144.89645385742188
149.37184143066406
153.57548522949216
157.47650146484375
161.04579162597656
164.25494384765625
167.07650756835935
169.48579406738278
171.4608917236328
172.98245239257812
174.0338592529297
174.6006927490234
174.670654296875
174.234375
173.28555297851562
171.82061767578125
169.83877563476562
167.34197998046872
164.33497619628906
160.8253173828125
156.8236083984375
152.343017578125
147.39892578125
142.00917053222656
136.19378662109372
129.97496032714844
123.37709045410155
116.4263916015625
109.150634765625
101.5791244506836
93.74256896972656
85.67296600341797
77.40341186523438
68.96768951416016
60.4000015258789
51.73490905761718
43.00700378417969
34.250801086425774
25.50057792663574
16.789833068847656
8.151077270507812
-0.3841559886932373
-8.785526275634766
-17.02400016784668
-25.071929931640625
-32.90337371826172
-40.4942741394043
-47.82238769531249
-54.867431640625
-61.611221313476555
-68.03765869140624
-74.1329345703125
-79.88550567626953
-85.28610229492186
-90.32765960693358
-95.00534057617186
-99.31656646728516
-103.26099395751953
-106.84044647216797
-110.05891418457031
-112.92243957519531
-115.43911743164061
-117.61890411376953
-119.47357177734375
-121.01655578613281
-122.26283264160155
-123.2285919189453
-123.93126678466795
-124.38920593261719
-124.62164306640625
-124.64849853515624
-124.49023437500001
-124.16766357421875
-123.70185852050781
-123.11402893066406
-122.42529296874999
-121.65657806396483
-120.82843017578125
-119.96087646484375
-119.07318115234374
-118.18385314941406
-117.31048583984374
-116.46961975097656
-115.67680358886719
-114.9464111328125
-114.29167175292969
-113.72454833984375
-113.25563049316405
-112.8940200805664
-112.64730834960938
-112.52148437499999
-112.5210189819336
-112.6487808227539
-112.90604400634764
-113.29263305664062
-113.80701446533203
-114.44628906249999
-115.20640563964844
-116.08232116699219
-117.06796264648438
-118.15634155273436
-119.33967590332031
-120.60945129394531
-121.95643615722656
-123.37094116210938
-124.84295654296875
-126.36206817626952
-127.91769409179686
-129.49925231933594
-131.09628295898438
-132.6986083984375
-134.29660034179688
-135.88096618652344
-137.44284057617188
-138.9739990234375
-140.46662902832028
-141.91336059570312
-143.30743408203125
-144.64273071289062
-145.91395568847656
-147.11688232421875
-148.24850463867188
-149.3070526123047
-150.29193115234375
-151.20379638671872
-152.0444793701172
-152.81690979003906
-153.5250244140625
-154.17379760742185
-154.76898193359375
-155.3169250488281
-155.82456970214844
-156.29965209960938
-156.75057983398438
-157.1864013671875
-157.61692810058594
-158.05221557617188
-158.50227355957028
-158.97789001464844
-159.4903106689453
-160.0506134033203
-160.67010498046875
-161.35926818847656
-162.12652587890625
-162.97962951660156
-163.92581176757812
-164.97023010253906
-166.1175537109375
-167.3719940185547
-168.73565673828122
-170.2110443115234
-171.80186462402344
-173.5101776123047
-175.3370819091797
-177.28247070312497
-179.34170532226562
-181.50735473632812
-183.77011108398438
-186.11746215820312
-188.53739929199216
-191.017578125
-193.54371643066403
-196.10531616210938
-198.6947784423828
-201.30606079101562
-203.93943786621094
-206.5907440185547
-209.2427520751953
-211.87596130371094
-214.46536254882812
-216.97801208496094
-219.38967895507812
-221.6788330078125
-223.8211212158203
-225.8029022216797
-227.61476135253903
-229.2478485107422
-230.70358276367188
-231.98112487792966
-233.06817626953125
-233.9430694580078
-234.5639953613281
-234.8987274169922
-234.9518127441406
-234.73986816406247
-234.30299377441406
-233.6977996826172
-232.95425415039062
-232.1168212890625
-231.25555419921875
-230.42022705078122
-229.66232299804688
-229.0238342285156
-228.49824523925778
-228.10226440429688
-227.88421630859372
-227.83175659179688
-227.91372680664062
-228.0261688232422
-227.93601989746094
-227.46112060546875
-226.44544982910153
-224.6399688720703
-221.87789916992185
-218.19506835937497
-213.7845001220703
-209.10742187499997
-204.7115936279297
-200.88075256347656
-197.81750488281247
-195.82537841796872
-195.09817504882812
-195.50927734375
-196.465576171875
-196.92868041992188
-195.98623657226562
-193.18185424804688
-188.1715393066406
-180.45773315429688
-169.44393920898438
-154.58331298828125
-135.77796936035153
-113.45978546142577
-87.66827392578125
-59.340381622314446
-31.503868103027344
-7.5874481201171875
8.654908180236816
17.054096221923828
23.96390914916992
35.602005004882805
54.13031768798828
72.32081604003906
69.78739929199219
24.54049682617187
-77.32926177978516
-234.97653198242188
-426.3700866699219
-617.8182983398438
-777.1723022460938
-879.743408203125
-916.8166503906249
-895.7783203125
-828.427490234375
-730.3812255859375
-618.97314453125
-505.17239379882807
-401.6217041015625
-321.10919189453125
-267.1159362792969
-240.7295989990234
-237.39364624023438
-242.5426483154297
-245.19067382812497
-239.20593261718747
-220.49481201171875
-195.83348083496094
-174.91329956054688
-161.44863891601562
-158.61244201660156
-163.6794281005859
-169.06036376953125
-171.70010375976562
-170.09191894531247
-164.19531249999997
-156.88645935058594
-149.7378692626953
-143.11712646484375
-137.70748901367185
-133.76437377929688
-131.2264709472656
-130.1721649169922
-130.43417358398438
-131.50762939453125
-132.97329711914062
-134.5276641845703
-135.77243041992185
-136.33566284179688
-136.05386352539062
-134.83099365234375
-132.66755676269528
-129.70730590820312
-126.04987335205077
-121.77099609375
-116.98986816406249
-111.81706237792969
-106.35531616210938
-100.70652770996092
-94.9599838256836
-89.20970153808592
-83.5505599975586
-78.05587768554688
-72.77900695800781
-67.74967193603516
-62.97639846801758
-58.46599197387695
-54.2112922668457
-50.18013000488281
-46.333694458007805
-42.62675857543945
-39.01425552368163
-35.46180725097656
-31.92816162109375
-28.364727020263672
-24.719518661499023
-20.9345645904541
-16.964645385742184
-12.782112121582031
-8.36606979370117
-3.7031097412109375
1.2123420238494873
6.383234977722168
11.802963256835938
17.452251434326172
23.31256103515625
29.36727905273437
35.59967041015624
41.995399475097656
48.53580093383789
55.19619750976562
61.95009994506837
68.77035522460938
75.63099670410156
82.50732421875
89.37350463867188
96.20219421386719
102.9665069580078
109.64022827148438
116.19846343994139
122.61734008789062
128.87075805664062
134.93035888671875
140.7675628662109
146.35365295410156
151.6607208251953
156.66192626953122
161.3306884765625
165.64083862304688
169.56829833984375
173.09120178222656
176.189697265625
178.8460235595703
181.04405212402344
182.76928710937497
184.00958251953122
184.75537109374997
184.9995574951172
184.7374114990234
183.96662902832028
182.68722534179688
180.90187072753906
178.61602783203122
175.83767700195312
172.5769348144531
168.84591674804688
164.65885925292966
160.0321807861328
154.9844818115234
149.53636169433594
143.71017456054688
137.52980041503906
131.02081298828125
124.2104034423828
117.1271743774414
109.80081939697266
102.26181030273436
94.54124450683594
86.67070007324219
78.68212890625
70.607666015625
62.479270935058594
54.32846450805664
46.186302185058594
38.083187103271484
30.04879760742187
22.111949920654293
14.300312995910643
6.640187263488769
-0.8435122966766357
-8.127387046813965
-15.189647674560545
-22.01015853881836
-28.57055282592773
-34.8543357849121
-40.84680938720703
-46.53512573242187
-51.90822601318359
-56.95691680908203
-61.6739273071289
-66.05396270751952
-70.09369659423827
-73.79179382324217
-77.14881896972656
-80.16723632812499
-82.85128784179688
-85.20693969726562
-87.24173736572266
-88.96464538574219
-90.38595581054688
-91.51715087890625
-92.3708038330078
-92.96053314208983
-93.30088806152344
-93.4072036743164
-93.29557800292967
-92.98265075683594
-92.48545837402344
-91.82136535644531
-91.0078353881836
-90.06229400634764
-89.00205993652344
-87.84413146972655
-86.60516357421875
-85.30131530761719
-83.94833374023438
-82.56140136718749
-81.15510559082031
-79.74335479736328
-78.33927917480469
-76.95518493652344
-75.60247039794922
-74.29147338867188
-73.03147888183594
-71.83055114746092
-70.69564056396484
-69.63263702392578
-68.64633178710938
-67.74049377441405
-66.91799926757811
-66.1807861328125
-65.52996826171875
-64.96585083007811
-64.48797607421875
-64.09504699707031
-63.78504180908203
-63.555152893066406
-63.40187835693359
-63.321182250976555
-63.308570861816406
-63.35916519165038
-63.46775817871093
-63.62883758544922
-63.8366355895996
-64.08518981933592
-64.36836242675781
-64.6799087524414
-65.013427734375
-65.36238861083984
-65.72021484375
-66.0804443359375
-66.43674468994139
-66.78298950195312
-67.11343383789062
-67.42268371582031
-67.70568084716797
-67.95793151855469
-68.17534637451172
-68.35411834716797
-68.49090576171875
-68.58272552490234
-68.62677001953124
-68.6205596923828
-68.56195831298827
-68.44891357421875
-68.27980041503906
-68.05347442626953
-67.76903533935545
-67.42593383789062
-67.02400970458983
-66.56317901611327
-66.04341125488281
-65.4648208618164
-64.82759857177734
-64.13218688964844
-63.37947845458984
-62.57073593139648
-61.70769500732422
-60.79249954223633
-59.827674865722656
-58.816307067871094
-57.76186752319335
-56.66802978515625
-55.538726806640625
-54.3780517578125
-53.18980026245117
-51.97784423828125
-50.7463035583496
-49.49906158447265
-48.24016571044921
-46.97407150268554
-45.70490264892578
-44.436546325683594
-43.17366409301758
-41.921260833740234
-40.684452056884766
-39.46917343139648
-38.280731201171875
-37.12284851074219
-35.99917984008789
-34.91314315795898
-33.866973876953125
-32.86283493041992
-31.902183532714844
-30.985004425048825
-30.111787796020508
-29.284534454345703
-28.505308151245117
-27.775829315185547
-27.096853256225586
-26.465572357177734
-25.87679672241211
-25.32381820678711
-24.7982120513916
-24.29222869873047
-23.79712677001953
-23.3022403717041
-22.79972267150879
-22.285449981689453
-21.759899139404293
-21.230249404907227
-20.70075225830078
-20.16280746459961
-19.601266860961914
-18.996564865112305
-18.32231521606445
-17.55904388427734
-16.690637588500977
-15.69511890411377
-14.556785583496092
-13.266963958740234
-11.820504188537596
-10.222238540649412
-8.480237007141113
-6.58767032623291
-4.520743370056152
-2.242203950881958
0.2813609838485718
3.0472400188446045
6.022486686706543
9.15656852722168
12.378632545471191
15.634058952331541
18.87765884399414
22.03653335571289
25.04045295715332
27.834428787231445
30.367280960083008
32.6209602355957
34.625198364257805
36.37371826171875
37.81093597412109
38.92192459106445
39.728923797607415
40.37103271484375
41.13440704345703
42.30804061889648
44.124549865722656
46.752105712890625
50.30265045166015
54.761104583740234
60.02983093261719
65.84648132324219
71.71061706542969
77.11015319824219
81.55225372314453
84.75391387939453
86.74492645263672
87.84224700927733
88.5213851928711
89.36621856689452
91.20886230468749
94.97459411621092
101.65259552001952
112.20848083496094
127.34638214111327
147.3673095703125
172.57444763183594
201.89527893066406
231.98635864257812
259.4391479492187
280.5665588378906
294.7770690917969
307.708251953125
323.265380859375
341.5091247558594
356.8670349121094
351.28198242187494
307.48089599609375
216.8502655029297
76.91688537597656
-95.96903991699219
-274.70379638671875
-435.486572265625
-552.6738281249999
-611.9390258789062
-616.7851562499999
-572.9764404296875
-492.7081298828125
-394.6067810058594
-288.6991882324218
-187.9560394287109
-108.97261047363281
-55.337684631347656
-28.180881500244137
-22.260650634765625
-20.9089241027832
-16.031993865966797
-5.787250518798828
8.645614624023438
19.321189880371094
23.009450912475582
22.14637565612793
19.859813690185547
20.19826889038086
24.79246139526367
32.65300750732422
42.526390075683594
53.13990020751953
63.603179931640625
73.04203033447266
80.38150024414062
85.05596923828125
86.95248413085938
86.30764770507811
83.64226531982422
79.39556884765625
73.93885803222656
67.83190917968749
61.74353408813476
56.13071060180664
51.25786590576172
47.21943283081054
43.9529914855957
41.45221710205078
39.754364013671875
38.83667755126953
38.634178161621094
39.073345184326165
40.07217407226562
41.57376098632812
43.557125091552734
45.96871566772461
48.728912353515625
51.73090362548828
54.82953643798828
57.92244720458984
60.95356750488281
63.88686370849609
66.71393585205078
69.42660522460938
72.01541137695312
74.49737548828125
76.9171142578125
79.32229614257812
81.76112365722655
84.27479553222656
86.890869140625
89.64886474609375
92.5972671508789
95.79012298583984
99.2890625
103.13500976562499
107.34894561767577
111.9443359375
116.92462158203124
122.28881072998045
128.03306579589844
134.13946533203122
140.57666015624997
147.31594848632812
154.33062744140625
161.5947723388672
169.08572387695312
176.7736053466797
184.62246704101562
192.59591674804685
200.65621948242185
208.76679992675778
216.89254760742188
224.99664306640622
233.04122924804688
240.98983764648438
248.8066711425781
256.4574890136719
263.9098815917969
271.1292724609375
278.0800476074219
284.7267761230469
291.0342102050781
296.968505859375
302.4976501464844
307.5903015136719
312.2164001464843
316.34887695312494
319.96343994140625
323.0384826660156
325.55548095703125
327.4981689453125
328.852783203125
329.6087951660156
329.75860595703125
329.2975158691406
328.2236022949219
326.53775024414057
324.2437438964843
321.3485107421875
317.86212158203125
313.7972106933593
309.1689453125
303.99499511718744
298.29559326171875
292.09341430664057
285.41348266601557
278.282958984375
270.7308349609375
262.7875061035156
254.48515319824216
245.85784912109375
236.9405822753906
227.77044677734375
218.3856201171875
208.82177734374997
199.11529541015625
189.3040008544922
179.42481994628906
169.51608276367188
159.61755371093747
149.76048278808594
139.97430419921875
130.30177307128903
120.78193664550781
111.45060729980469
102.34593200683594
93.4859390258789
84.87896728515625
76.56098937988281
68.56664276123047
60.88167190551758
53.49748992919922
46.408424377441406
39.595458984375
33.09208679199219
26.95433807373047
21.1583309173584
15.65550422668457
10.57570171356201
6.069993019104004
2.0403895378112793
-1.5118234157562256
-4.567337989807128
-7.470357894897461
-9.338408470153809
-9.315067291259764
-8.66275691986084
-7.777344226837157
-8.9663724899292
-14.989156723022461
-22.835300445556637
-30.506050109863278
-35.0150146484375
-32.25177001953125
-25.89455223083496
-19.064664840698242
-13.907775878906248
-13.954767227172852
-16.71816635131836
-19.675792694091793
-22.28207778930664
-23.005786895751953
-22.76407432556152
-22.730007171630856
-22.697914123535153
-22.828651428222656
-23.056442260742188
-23.156963348388672
-23.292125701904297
-23.5916576385498
-24.020118713378903
-24.572086334228516
-25.263898849487305
-26.092363357543945
-27.047122955322266
-28.120578765869137
-29.285890579223633
-30.510711669921875
-31.798732757568356
-33.15234756469726
-34.558303833007805
-36.007728576660156
-37.489776611328125
-38.9913330078125
-40.50411987304687
-42.019752502441406
-43.52466964721679
-45.00569152832031
-46.451141357421875
-47.848907470703125
-49.18817138671874
-50.45884704589843
-51.650997161865234
-52.75566101074219
-53.764900207519524
-54.67184066772461
-55.470806121826165
-56.15732955932617
-56.728214263916016
-57.181480407714844
-57.51633834838867
-57.733245849609375
-57.83394241333007
-57.82134628295898
-57.699562072753906
-57.47372817993164
-57.14995574951172
-56.73522186279297
-56.237354278564446
-55.66482925415039
-55.02672576904297
-54.33248901367187
-53.59177780151367
-52.81443786621093
-52.01044845581055
-51.18982696533203
-50.362613677978516
-49.538764953613274
-48.727920532226555
-47.93953323364257
-47.18286895751953
-46.46681976318359
-45.799903869628906
-45.19002914428711
-44.64422988891601
-44.168777465820305
-43.76923370361328
-43.45014190673828
-43.215049743652344
-43.06639862060547
-43.00529861450195
-43.0318489074707
-43.14530563354492
-43.34392547607422
-43.62507629394531
-43.98535919189453
-44.420494079589844
-44.92577362060546
-45.49637603759765
-46.12712478637695
-46.81266403198242
-47.547500610351555
-48.32592773437499
-49.14250183105468
-49.992462158203125
-50.871482849121094
-51.775657653808594
-52.70154571533203
-53.64598083496094
-54.60643768310547
-55.581398010253906
-56.56971740722656
-57.570404052734375
-58.5826301574707
-59.60575866699219
-60.639617919921875
-61.68516540527344
-62.74396896362305
-63.81766891479492
-64.90856170654297
-66.01949310302734
-67.15397644042969
-68.31671142578124
-69.512939453125
-70.74756622314452
-72.02552032470703
-73.35208129882812
-74.73217773437499
-76.17095184326172
-77.67316436767578
-79.24081420898436
-80.87425231933592
-82.57283020019531
-84.33354187011719
-86.15205383300781
-88.02314758300781
-89.9392852783203
-91.892822265625
-93.87864685058594
-95.89078521728514
-97.92333984375
-99.97161865234375
-102.02787017822266
-104.08406066894531
-106.13314819335936
-108.16431427001953
-110.16735076904297
-112.13481903076172
-114.05778503417967
-115.93229675292969
-117.76166534423828
-119.5456771850586
-121.28082275390624
-122.95722961425781
-124.54944610595703
-126.03034210205077
-127.37725830078124
-128.55960083007812
-129.54534912109375
-130.30589294433594
-130.81703186035153
-131.0772552490234
-131.10194396972656
-130.90496826171872
-130.4907684326172
-129.8443450927734
-128.9472198486328
-127.80015563964842
-126.42338562011719
-124.86409759521484
-123.18949890136719
-121.44662475585936
-119.69654846191406
-118.0381622314453
-116.50558471679688
-115.07633972167969
-113.65362548828125
-111.98175048828125
-109.81875610351562
-107.01717376708984
-103.38201904296875
-98.80693054199217
-93.46537780761719
-87.62467956542969
-81.72676849365234
-76.46833801269531
-72.3083267211914
-69.5815200805664
-68.81546020507811
-70.16903686523438
-73.26321411132812
-77.56031036376953
-82.11155700683594
-85.67684936523436
-87.38323974609375
-86.269775390625
-81.02574157714844
-70.7078170776367
-54.79802703857422
-33.007118225097656
-5.4905004501342765
25.736064910888672
57.055091857910156
84.94644165039062
105.32643127441406
118.99588012695312
132.03802490234372
146.46685791015622
161.61520385742188
167.89141845703125
145.43487548828125
81.90829467773436
-27.728225708007812
-176.9716033935547
-343.28668212890625
-503.98345947265625
-638.619384765625
-731.3546142578125
-776.674560546875
-776.401123046875
-735.4451293945312
-661.1196289062499
-566.16650390625
-461.49511718749994
-360.38409423828125
-279.37579345703125
-222.8699951171875
-190.47186279296875
-175.86959838867185
-163.91265869140625
-148.197998046875
-128.29574584960938
-106.37804412841797
-90.11759948730467
-82.56798553466797
-81.65005493164062
-84.65796661376952
-87.54478454589844
-87.8688735961914
-85.8370590209961
-82.13894653320312
-77.4587173461914
-72.32084655761717
-67.12039947509764
-62.27021408081055
-58.352439880371094
-56.0478630065918
-55.503662109375
-56.51371002197265
-58.81302261352538
-61.937488555908196
-65.43311309814453
-68.96070861816406
-72.1019821166992
-74.43671417236327
-75.7732162475586
-76.03652954101562
-75.22787475585938
-73.4716567993164
-70.87317657470703
-67.52188110351562
-63.55076599121093
-59.09149169921875
-54.26285171508788
-49.175148010253906
-43.92811584472656
-38.627647399902344
-33.377716064453125
-28.258190155029297
-23.326608657836914
-18.614982604980465
-14.132692337036131
-9.887206077575682
-5.8715996742248535
-2.0513858795166016
1.6161390542984009
5.179965496063232
8.688785552978516
12.179780960083008
15.696638107299805
19.290918350219727
23.017400741577145
26.935977935791012
31.092470169067383
35.51345443725585
40.21784210205078
45.21672058105469
50.51262664794922
56.104957580566406
61.98320770263671
68.12358093261719
74.50312042236327
81.10137939453125
87.8980484008789
94.87541961669922
102.01155090332031
109.2783432006836
116.64593505859375
124.08425903320311
131.5648193359375
139.06080627441406
146.54450988769528
153.98707580566406
161.3605041503906
168.6380615234375
175.79470825195312
182.80682373046875
189.64865112304688
196.29237365722656
202.71009826660156
208.87408447265625
214.75759887695312
220.3351898193359
225.58169555664062
230.4725799560547
234.9855499267578
239.1007843017578
242.80047607421875
246.0688781738281
248.89186096191406
251.25665283203122
253.1527099609375
254.57183837890622
255.5079803466797
255.95713806152344
255.91741943359375
255.38912963867188
254.37493896484372
252.88009643554688
250.91220092773435
248.48074340820315
245.5969543457031
242.27386474609372
238.52639770507812
234.37127685546875
229.8268280029297
224.91270446777344
219.64979553222656
214.06031799316403
208.1678771972656
201.99729919433594
195.5743408203125
188.92535400390625
182.07730102539062
175.05746459960935
167.89352416992188
160.61328125
153.24432373046875
145.8136749267578
138.34805297851562
130.8736419677734
123.41611480712889
116.00056457519531
108.65123748779297
101.39139556884764
94.24329376220702
87.22814178466797
80.36594390869139
73.67539978027344
67.17373657226562
60.87665557861328
54.798362731933594
48.95160675048828
43.34767532348632
37.99641799926758
32.906166076660156
28.083763122558594
23.53456115722656
19.262470245361328
15.269919395446777
11.557849884033201
8.125692367553711
4.9714274406433105
2.0916874408721924
-0.5181637406349181
-2.8639492988586426
-4.952608108520508
-6.792125701904296
-8.391435623168944
-9.760309219360352
-10.909289360046387
-11.849650382995604
-12.593348503112793
-13.152956008911133
-13.541557312011719
-13.772633552551268
-13.859962463378904
-13.817525863647461
-13.659428596496582
-13.399768829345703
-13.052534103393555
-12.631521224975584
-12.15028190612793
-11.622077941894531
-11.059857368469238
-10.476201057434082
-9.883255004882812
-9.29269218444824
-8.715677261352539
-8.162804603576658
-7.644073009490967
-7.168816566467285
-6.745631217956543
-6.3823504447937
-6.086050510406494
-5.863037586212158
-5.718878746032714
-5.658401966094971
-5.6856465339660645
-5.803897857666015
-6.015723705291747
-6.322980880737305
-6.726838111877441
-7.227765083312988
-7.825489044189453
-8.519044876098631
-9.306848526000975
-10.186698913574219
-11.155855178833008
-12.211050033569336
-13.348489761352539
-14.56397247314453
-15.85295295715332
-17.21054458618164
-18.631565093994137
-20.110584259033203
-21.6418514251709
-23.21939468383789
-24.837108612060543
-26.48866271972656
-28.167583465576172
-29.867322921752926
-31.581153869628906
-33.302310943603516
-35.02413558959961
-36.74007034301758
-38.443702697753906
-40.128826141357415
-41.78934860229492
-43.41936492919922
-45.013355255126946
-46.566108703613274
-48.07266998291015
-49.52840805053711
-50.92880249023437
-52.26960754394531
-53.54701232910156
-54.7575569152832
-55.89810562133789
-56.9659538269043
-57.95859146118163
-58.87385177612305
-59.7100601196289
-60.46575546264648
-61.13963317871093
-61.73073577880859
-62.23811340332031
-62.66084289550781
-62.99836730957031
-63.25025939941406
-63.416114807128906
-63.49609374999999
-63.49049758911133
-63.39978790283203
-63.22512054443359
-62.968017578125
-62.63003921508788
-62.212982177734375
-61.71863174438476
-61.14860534667969
-60.50482177734375
-59.78934860229492
-59.00381851196289
-58.14979553222656
-57.22875213623047
-56.24212646484374
-55.19198989868164
-54.080696105957024
-52.91042709350586
-51.68349838256835
-50.402229309082024
-49.068748474121094
-47.685707092285156
-46.25595474243163
-44.78200149536133
-43.266849517822266
-41.713890075683594
-40.126495361328125
-38.509010314941406
-36.86701202392578
-35.206260681152344
-33.53336334228515
-31.855943679809567
-30.18092346191406
-28.515403747558594
-26.867300033569336
-25.243684768676758
-23.650714874267575
-22.09456443786621
-20.580223083496094
-19.111503601074215
-17.693731307983395
-16.332580566406246
-15.033435821533203
-13.803771018981932
-12.651905059814453
-11.585496902465819
-10.613216400146484
-9.74368381500244
-8.983351707458496
-8.339333534240723
-7.816380500793457
-7.413694858551025
-7.131561279296874
-6.970788002014159
-6.934532165527343
-7.033395767211914
-7.274764060974121
-7.65762996673584
-8.180660247802734
-8.839997291564941
-9.624378204345703
-10.52433395385742
-11.521172523498533
-12.577419281005858
-13.661103248596191
-14.742644309997557
-15.79644775390625
-16.823274612426758
-17.830408096313477
-18.815734863281246
-19.774477005004883
-20.691978454589844
-21.55378723144531
-22.37467002868652
-23.176483154296875
-23.963241577148438
-24.748081207275387
-25.544307708740234
-26.387239456176758
-27.375469207763672
-28.60857391357422
-30.163618087768555
-32.09904479980469
-34.41346740722656
-37.08396911621094
-40.120613098144524
-43.538597106933594
-47.34565734863281
-51.542850494384766
-56.04996871948242
-60.769004821777344
-65.67775726318358
-70.70442199707031
-75.72106933593749
-80.5111083984375
-84.68145751953125
-87.83660125732422
-89.7091293334961
-90.10340118408202
-88.90402984619139
-86.18714904785155
-82.0893325805664
-76.8932647705078
-71.11782836914062
-65.27591705322266
-59.92626190185546
-55.50424575805663
-52.158740997314446
-49.768768310546875
-47.968955993652344
-46.11643981933594
-43.432708740234375
-39.12648010253906
-31.90815734863281
-20.5129337310791
-3.961341857910156
18.827316284179688
47.13671112060547
77.95340728759766
108.42803955078124
135.35382080078125
157.93000793457028
181.20489501953125
208.23559570312497
238.31539916992188
266.0222473144531
273.83837890625
244.40148925781247
168.32675170898438
42.2729606628418
-118.59516143798828
-287.8218994140625
-441.56939697265625
-554.8987426757811
-614.4947509765625
-624.1874389648438
-589.9187622070312
-523.166748046875
-439.86462402343744
-347.9742736816406
-258.1512451171875
-183.98681640625
-128.71838378906247
-93.87256622314453
-75.73291015625
-61.41515350341796
-45.24421310424804
-26.26572799682617
-5.97865104675293
8.446659088134766
14.16079521179199
12.979900360107422
7.717134952545166
2.78558349609375
0.7418372631072998
1.601302623748779
4.850944519042968
9.753725051879881
15.708236694335938
22.29890251159668
28.863178253173825
34.572608947753906
38.705974578857415
41.021236419677734
41.71135711669922
41.088443756103516
39.521141052246094
37.36070251464844
34.94314193725586
32.67681884765625
30.979072570800778
30.071073532104492
29.996177673339844
30.722717285156246
32.15234375
34.205284118652344
36.83635711669922
39.96349334716796
43.463111877441406
47.2205810546875
51.12220382690429
55.06071090698242
58.980842590332024
62.83202362060547
66.55027770996094
70.09231567382812
73.42166137695312
76.5171661376953
79.39036560058594
82.06221771240233
84.547607421875
86.86879730224608
89.05140686035156
91.12136077880858
93.12210845947266
95.10284423828125
97.11431884765625
99.21442413330078
101.4459457397461
103.83871459960938
106.42015838623047
109.20762634277344
112.21133422851562
115.43700408935547
118.87821960449217
122.5201187133789
126.35246276855469
130.36534118652344
134.5469818115234
138.88795471191403
143.3733673095703
147.98399353027344
152.70051574707028
157.50061035156247
162.36183166503906
167.263671875
172.18544006347656
177.1061553955078
182.006103515625
186.86569213867188
191.66622924804688
196.39111328125
201.02172851562497
205.5373382568359
209.91664123535156
214.1370086669922
218.1759796142578
222.01217651367188
225.62399291992188
228.98979187011716
232.0894012451172
234.9040374755859
237.41616821289062
239.6101837158203
241.4714660644531
242.9862518310547
244.14228820800778
244.9285736083984
245.33555603027344
245.35531616210935
244.98170471191406
244.2099914550781
243.03729248046872
241.46237182617188
239.48580932617188
237.11010742187497
234.33949279785156
231.17970275878903
227.63786315917966
223.72247314453125
219.44357299804688
214.81271362304688
209.84288024902344
204.54830932617188
198.94454956054688
193.04867553710938
186.8789825439453
180.4551544189453
173.79798889160156
166.92922973632812
159.87152099609375
152.64825439453122
145.2833709716797
137.80108642578125
130.2259979248047
122.58279418945312
114.89628601074219
107.19133758544922
99.49270629882811
91.8249282836914
84.21232604980469
76.67874145507812
69.24746704101562
61.94109725952148
54.78137969970703
47.78912353515624
40.98411560058593
34.38498306274414
28.00917053222656
21.872920989990234
15.991248130798338
10.377837181091307
5.044995307922363
0.0035508871078491207
-4.7372140884399405
-9.169585227966309
-13.287515640258789
-17.08668327331543
-20.564523696899414
-23.720252990722656
-26.554836273193356
-29.070938110351562
-31.272865295410156
-33.166542053222656
-34.7593994140625
-36.06036376953124
-37.07973480224609
-37.82914733886719
-38.321449279785156
-38.57066345214844
-38.59185409545898
-38.401058197021484
-38.01512145996094
-37.451568603515625
-36.7284049987793
-35.864009857177734
-34.87696838378906
-33.78593826293945
-32.609535217285156
-31.36617279052734
-30.07396697998047
-28.750614166259766
-27.41334533691406
-26.07879066467285
-24.762889862060543
-23.480737686157223
-22.24647521972656
-21.073184967041016
-19.972810745239254
-18.956041336059567
-18.03226661682129
-17.209495544433594
-16.49433708190918
-15.891998291015625
-15.406303405761717
-15.039703369140623
-14.79328918457031
-14.666812896728516
-14.658710479736326
-14.76614761352539
-14.98508548736572
-15.310321807861328
-15.735561370849608
-16.25349235534668
-16.855880737304684
-17.53369903564453
-18.277269363403317
-19.07640266418457
-19.92047119140625
-20.798547744750977
-21.699516296386715
-22.612199783325195
-23.52547836303711
-24.42839241027832
-25.31020736694336
-26.160503387451172
-26.969297409057617
-27.727149963378903
-28.425304412841797
-29.055770874023438
-29.611396789550778
-30.085973739624023
-30.474258422851562
-30.772037506103512
-30.97618865966797
-31.084661483764645
-31.096473693847656
-31.011743545532223
-30.831634521484375
-30.558353424072262
-30.195194244384766
-29.746498107910156
-29.217559814453125
-28.614614486694332
-27.944765090942383
-27.215896606445312
-26.436647415161133
-25.616333007812496
-24.764774322509766
-23.89220428466797
-23.00929069519043
-22.12700653076172
-21.256507873535156
-20.40903663635254
-19.59571647644043
-18.82744026184082
-18.114831924438477
-17.46816635131836
-16.897262573242188
-16.41136360168457
-16.019014358520508
-15.728015899658203
-15.545394897460938
-15.477285385131834
-15.529014587402344
-15.7050199508667
-16.008617401123043
-16.442102432250973
-17.006732940673828
-17.702627182006832
-18.52890968322754
-19.483800888061523
-20.564224243164062
-21.765941619873047
-23.083885192871094
-24.51198387145996
-26.04340362548828
-27.6706485748291
-29.38534927368164
-31.178329467773434
-33.0399169921875
-34.95999908447265
-36.92774200439453
-38.931739807128906
-40.96009063720703
-43.00056457519531
-45.04108810424804
-47.069881439208984
-49.07542037963867
-51.04647445678711
-52.97212600708008
-54.84203338623047
-56.646644592285156
-58.377052307128906
-60.024932861328125
-61.582717895507805
-63.04316329956055
-64.3996124267578
-65.64666748046875
-66.77991485595703
-67.79574584960936
-68.69183349609374
-69.46670532226562
-70.11946105957031
-70.65117645263672
-71.06465148925781
-71.36332702636719
-71.55183410644531
-71.63503265380858
-71.61752319335936
-71.50454711914062
-71.30229187011719
-71.0160446166992
-70.65032958984375
-70.21023559570312
-69.70079803466797
-69.12850952148438
-68.50154113769531
-67.82748413085938
-67.11320495605469
-66.36552429199217
-65.59049987792969
-64.79263305664062
-63.97493362426757
-63.13831710815429
-62.28343200683593
-61.41167449951172
-60.52369308471679
-59.6234245300293
-58.71801376342773
-57.8167381286621
-56.93310928344726
-56.07771682739258
-55.25334548950195
-54.457988739013665
-53.686058044433594
-52.9230728149414
-52.15017700195312
-51.35161590576172
-50.511051177978516
-49.61671447753906
-48.661914825439446
-47.641422271728516
-46.553367614746094
-45.4002685546875
-44.18572998046875
-42.89802932739257
-41.51034545898437
-40.00540542602539
-38.383880615234375
-36.66659545898437
-34.898338317871094
-33.13375091552734
-31.426879882812496
-29.845897674560547
-28.470001220703125
-27.37352752685547
-26.631654739379883
-26.29615592956543
-26.37918663024902
-26.892576217651364
-27.8444881439209
-29.199010848999023
-30.912015914916992
-32.87042999267578
-34.8456916809082
-36.646671295166016
-38.101722717285156
-38.95051193237305
-38.99444580078124
-38.230152130126946
-36.723297119140625
-34.733489990234375
-32.74190902709961
-31.002283096313473
-29.73546028137207
-29.438945770263672
-30.382608413696286
-32.450096130371094
-35.376018524169915
-38.4450798034668
-40.613121032714844
-41.28132247924805
-39.834991455078125
-35.005653381347656
-25.75812530517578
-11.337886810302734
9.226788520812988
35.175514221191406
63.52527999877929
91.54490661621092
115.91481018066405
134.9701385498047
153.2896575927734
174.94775390625
200.27664184570312
225.67251586914062
234.70002746582028
207.30648803710935
131.50814819335938
0.9252243041992186
-172.65759277343747
-361.27069091796875
-538.0977783203125
-674.379638671875
-750.7822265625
-768.4786987304688
-734.694580078125
-663.6029663085938
-574.1337280273438
-476.3367004394531
-378.5208435058594
-290.3365478515625
-218.0488586425781
-167.75527954101562
-142.6106719970703
-138.69674682617188
-145.83187866210938
-153.18194580078125
-153.1993713378906
-141.82601928710938
-123.84292602539062
-107.40721130371094
-96.51887512207031
-94.34773254394531
-98.57404327392578
-102.75775146484374
-104.35643005371094
-101.9172592163086
-95.56957244873045
-88.29314422607422
-81.52348327636717
-75.73143005371092
-71.69630432128906
-69.20876312255858
-67.90637207031249
-67.75782775878906
-68.42387390136719
-69.4674301147461
-70.6002197265625
-71.46485900878906
-71.63182067871094
-70.88031768798827
-69.1422119140625
-66.39794921875
-62.74695205688476
-58.308475494384766
-53.156707763671875
-47.39666366577148
-41.18250656127929
-34.65671157836914
-27.958480834960938
-21.2237548828125
-14.526716232299803
-7.929821491241454
-1.5123324394226074
4.66921329498291
10.56863498687744
16.155973434448242
21.435338973999023
26.422592163085938
31.127977371215817
35.57188034057617
39.78500747680664
43.79985809326171
47.666587829589844
51.44180297851562
55.18172073364257
58.9493408203125
62.7926139831543
66.74569702148436
70.83967590332031
75.09523010253906
79.52575683593749
84.14035034179688
88.9366989135742
93.90428161621092
99.03739166259766
104.33053588867188
109.77549743652344
115.36616516113281
121.09082794189452
126.93312072753905
132.87652587890625
138.9013519287109
144.98741149902344
151.1163787841797
157.26963806152344
163.42776489257812
169.5719757080078
175.68289184570312
181.74127197265625
187.72906494140622
193.62533569335938
199.40634155273438
205.04692077636716
210.5201416015625
215.79881286621094
220.85650634765622
225.6662139892578
230.20069885253906
234.43417358398438
238.3420715332031
241.90106201171875
245.08975219726562
247.88775634765625
250.27572631835935
252.23593139648438
253.75253295898435
254.8113098144531
255.40048217773435
255.51054382324216
255.1340637207031
254.26611328125
252.90423583984372
251.04864501953125
248.70201110839844
245.86972045898438
242.55935668945312
238.78062438964844
234.54580688476562
229.86944580078125
224.7686004638672
219.26266479492188
213.37307739257812
207.12342834472656
200.5395355224609
193.64891052246094
186.48083496093747
179.06588745117185
171.435791015625
163.62310791015625
155.66119384765625
147.58367919921875
139.4241943359375
131.2164306640625
122.99363708496094
114.78875732421875
106.63398742675781
98.56068420410156
90.59898376464842
82.77779388427734
75.12459564208984
67.66519927978514
60.423744201660156
53.42243194580078
46.68149185180664
40.219146728515625
34.05152511596679
28.19264030456543
22.65436553955078
17.446340560913082
12.575916290283201
8.048141479492188
3.8657379150390625
0.02912771701812744
-3.4635002613067627
-6.616175651550293
-9.435047149658203
-11.928237915039062
-14.105705261230469
-15.979097366333008
-17.56159210205078
-18.86778450012207
-19.913528442382812
-20.71572685241699
-21.292186737060547
-21.661437988281246
-21.84253692626953
-21.854909896850586
-21.718124389648438
-21.45170021057129
-21.074918746948242
-20.606674194335938
-20.065345764160153
-19.468685150146484
-18.83373260498047
-18.17669677734375
-17.512893676757812
-16.856679916381836
-16.22138786315918
-15.619268417358398
-15.061413764953613
-14.557674407958984
-14.116609573364256
-13.745462417602539
-13.45016860961914
-13.235358238220215
-13.104377746582031
-13.059318542480469
-13.101071357727049
-13.229387283325194
-13.442962646484375
-13.739505767822264
-14.11579418182373
-14.56772994995117
-15.09044075012207
-15.678375244140625
-16.325435638427734
-17.025104522705078
-17.77054214477539
-18.554697036743164
-19.370445251464844
-20.210691452026367
-21.068479537963864
-21.93706130981445
-22.8099250793457
-23.680820465087887
-24.54380989074707
-25.393278121948242
-26.224016189575195
-27.031219482421875
-27.81048202514648
-28.557836532592773
-29.26979064941406
-29.943340301513672
-30.57601547241211
-31.16585922241211
-31.711353302001953
-32.21139907836914
-32.66534423828125
-33.07295227050781
-33.43442153930664
-33.75034713745117
-34.02159881591797
-34.24932479858398
-34.43494415283203
-34.58011627197265
-34.6866455078125
-34.75646209716797
-34.791385650634766
-34.79308319091796
-34.76311111450195
-34.70282745361328
-34.61339950561523
-34.495731353759766
-34.350341796875
-34.177398681640625
-33.97679901123046
-33.748149871826165
-33.49082946777344
-33.20400238037109
-32.886474609375
-32.53679275512695
-32.153480529785156
-31.73495101928711
-31.279640197753903
-30.78606414794922
-30.252613067626953
-29.677677154541016
-29.05993843078613
-28.398218154907227
-27.691448211669922
-26.938695907592773
-26.13895034790039
-25.29117393493652
-24.394657135009766
-23.449043273925778
-22.454200744628906
-21.410337448120117
-20.317962646484375
-19.178068161010742
-17.992549896240234
-16.764211654663086
-15.496472358703613
-14.19333267211914
-12.859233856201172
-11.499156951904295
-10.119102478027344
-8.725842475891113
-7.326688766479491
-5.929616928100586
-4.542964458465576
-3.17553973197937
-1.8370850086212156
-0.5378372669219971
0.7121217250823975
1.9027140140533447
3.0242133140563965
4.067534446716308
5.023359775543213
5.8825364112854
6.6367316246032715
7.277994155883789
7.798737525939941
8.191727638244629
8.449631690979004
8.565114974975586
8.53176498413086
8.344220161437988
7.998021125793457
7.489877700805664
6.817617416381836
5.9806718826293945
4.980762004852294
3.821898460388183
2.5097930431365967
1.0514367818832397
-0.5443786978721619
-2.2672300338745117
-4.105270862579346
-6.0456857681274405
-8.076943397521973
-10.188358306884766
-12.368204116821289
-14.603946685791016
-16.88254165649414
-19.19092559814453
-21.517597198486325
-23.85222625732422
-26.181840896606445
-28.492279052734375
-30.77067947387695
-33.00485229492187
-35.189876556396484
-37.32546997070312
-39.405731201171875
-41.421611785888665
-43.35513687133788
-45.177593231201165
-46.865798950195305
-48.40019989013671
-49.754154205322266
-50.901329040527344
-51.82017517089843
-52.491741180419915
-52.92364501953125
-53.149150848388665
-53.19499588012695
-53.091217041015625
-52.85234451293945
-52.46725845336913
-51.95045471191406
-51.33241271972656
-50.65850448608398
-50.00552368164062
-49.427330017089844
-48.933609008789055
-48.558692932128906
-48.376625061035156
-48.40394592285156
-48.613197326660156
-48.87193298339844
-48.88260269165039
-48.39846420288086
-47.32065963745117
-45.63755798339844
-43.32793426513672
-40.45071792602539
-37.17421722412109
-33.77786636352538
-30.86694145202637
-29.07024765014648
-28.609012603759766
-29.498065948486328
-31.882783889770508
-35.68821334838867
-40.53840255737305
-45.17808532714844
-46.98946762084961
-43.5408592224121
-34.13313674926758
-21.49635887145996
-9.77881145477295
-1.9467368125915525
1.5721628665924072
6.934632301330566
21.059452056884762
47.987747192382805
90.63410949707031
142.51058959960935
192.65415954589844
230.05635070800778
236.79772949218747
199.8331756591797
114.140625
-21.06420516967773
-190.08187866210938
-368.48254394531244
-533.533447265625
-661.6024169921875
-739.2838134765625
-765.4543457031249
-742.2193603515625
-676.7168579101561
-582.2549438476562
-472.32940673828125
-363.11831665039057
-273.8486328125
-212.5397186279297
-178.1674346923828
-163.43319702148438
-152.1644744873047
-135.58044433593747
-113.30979919433594
-88.50530242919922
-69.77336883544922
-61.141426086425774
-60.89173889160156
-65.73220825195311
-70.64403533935547
-72.67733764648438
-71.67179870605469
-68.12461853027344
-62.874359130859375
-56.57806396484375
-49.62657165527343
-42.682865142822266
-36.61039352416992
-32.22104263305664
-29.841163635253903
-29.312084197998043
-30.330274581909176
-32.44190216064453
-35.20623016357422
-38.26454162597656
-41.165409088134766
-43.45569610595703
-44.90857696533203
-45.454944610595696
-45.111026763916016
-43.999874114990234
-42.21710968017578
-39.818939208984375
-36.90884399414062
-33.597900390625
-29.9902400970459
-26.201169967651364
-22.33130645751953
-18.477533340454098
-14.73638916015625
-11.179889678955078
-7.861824989318847
-4.819678783416747
-2.0645027160644527
0.40739339590072626
2.610304832458496
4.5812339782714835
6.363029479980469
7.995592594146728
9.522732734680176
10.98438262939453
12.427600860595703
13.911241531372069
15.499322891235352
17.259986877441406
19.248985290527344
21.505769729614258
24.061403274536133
26.938800811767578
30.152000427246094
33.70801544189453
37.603759765625
41.824310302734375
46.355159759521484
51.18422317504883
56.29892349243163
61.68758392333984
67.33338165283203
73.21369171142577
79.30285644531249
85.57305908203125
91.99717712402344
98.54841613769531
105.19847106933592
111.91777038574219
118.6767578125
125.44595336914062
132.19729614257812
138.9036865234375
145.53509521484372
152.05917358398435
158.44247436523438
164.65054321289062
170.64956665039062
176.40643310546875
181.88760375976562
187.059814453125
191.8914794921875
196.35296630859375
200.416748046875
204.05770874023438
207.25213623046875
209.9783020019531
212.2169189453125
213.9512023925781
215.1671905517578
215.85357666015625
216.00148010253906
215.60491943359372
214.66078186035156
213.16880798339844
211.1319580078125
208.5559387207031
205.448974609375
201.82202148437497
197.6885986328125
193.06472778320312
187.9688720703125
182.42172241210938
176.44578552246094
170.06564331054688
163.30792236328125
156.20103454589844
148.77516174316406
141.06192016601562
133.09417724609375
124.90600585937499
116.53234100341797
108.00893402099608
99.37171936035155
90.6565475463867
81.89907836914062
73.13449096679688
64.39738464355467
55.72162628173828
47.140052795410156
38.68431091308594
30.384744644165036
22.27031707763672
14.368416786193848
6.704734802246094
-0.6969442367553711
-7.814848899841308
-14.629308700561522
-21.122779846191406
-27.27983474731445
-33.087196350097656
-38.53373718261719
-43.6104736328125
-48.31055450439453
-52.62920379638672
-56.56371307373047
-60.113433837890625
-63.27982711791992
-66.06640625
-68.47872924804686
-70.52433013916016
-72.21263122558594
-73.55479431152344
-74.56364440917969
-75.25352478027342
-75.64004516601562
-75.73997497558592
-75.571044921875
-75.15180969238281
-74.5014419555664
-73.63971710205077
-72.58671569824217
-71.36274719238281
-69.98822784423828
-68.48348236083984
-66.86859893798827
-65.16326141357422
-63.386665344238274
-61.55736541748046
-59.693153381347656
-57.81098556518555
-55.92691802978515
-54.05608367919922
-52.21260070800781
-50.40962219238281
-48.659236907958984
-46.97245407104492
-45.35913085937499
-43.82797241210937
-42.38650512695312
-41.041011810302734
-39.796524047851555
-38.656829833984375
-37.62445068359375
-36.70072174072265
-35.885860443115234
-35.17900085449219
-34.578296661376946
-34.08094787597656
-33.683319091796875
-33.381019592285156
-33.169010162353516
-33.04167556762695
-32.992923736572266
-33.0162353515625
-33.10475921630859
-33.251468658447266
-33.44923019409179
-33.69091796874999
-33.96946334838867
-34.2779197692871
-34.6095085144043
-34.95774841308594
-35.31652069091797
-35.6800651550293
-36.04300689697265
-36.400367736816406
-36.74760437011718
-37.0806884765625
-37.39614868164062
-37.6910514831543
-37.96293258666992
-38.209808349609375
-38.430171966552734
-38.62308883666992
-38.788230895996094
-38.92580413818359
-39.0364990234375
-39.121387481689446
-39.18191528320312
-39.22002410888671
-39.238075256347656
-39.23868560791015
-39.22460174560547
-39.19855880737305
-39.163238525390625
-39.121414184570305
-39.07592010498047
-39.02948760986328
-38.984619140625
-38.94359588623046
-38.908424377441406
-38.88100433349609
-38.86309814453125
-38.8560791015625
-38.86075973510742
-38.87736892700195
-38.90562057495117
-38.944766998291016
-38.9936408996582
-39.05050277709961
-39.11283874511719
-39.17768096923828
-39.24176788330078
-39.30175018310546
-39.35423278808594
-39.395435333251946
-39.42107391357422
-39.426456451416016
-39.40673828125
-39.357070922851555
-39.27259063720703
-39.14799118041992
-38.97751998901367
-38.755462646484375
-38.47643280029297
-38.13580322265625
-37.72961044311523
-37.25404357910156
-36.70528793334961
-36.07994079589844
-35.37536621093749
-34.58955383300781
-33.721076965332024
-32.768646240234375
-31.730838775634766
-30.606994628906246
-29.39775276184082
-28.10483360290527
-26.730907440185543
-25.27963638305664
-23.755281448364258
-22.16348648071289
-20.511974334716797
-18.809146881103516
-17.063455581665036
-15.283309936523436
-13.476490020751953
-11.650658607482908
-9.814164161682129
-7.974552631378173
-6.138230323791504
-4.311694622039794
-2.5014801025390625
-0.7162983417510985
1.0326364040374756
2.7342453002929688
4.378182411193848
5.955224037170409
7.457951545715331
8.879003524780273
10.210679054260254
11.450305938720703
12.598957061767576
13.655895233154297
14.619281768798828
15.480384826660156
16.223651885986328
16.838939666748043
17.32220458984375
17.672883987426754
17.89604949951172
18.000789642333984
18.000507354736328
17.922428131103516
17.803815841674805
17.67957496643066
17.578392028808594
17.50750160217285
17.459598541259766
17.43486404418945
17.439310073852536
17.489145278930664
17.605539321899414
17.789264678955078
18.02660369873047
18.312152862548828
18.639503479003906
18.985713958740234
19.30356216430664
19.498430252075195
19.44647216796875
19.046371459960934
18.233482360839844
16.97851181030273
15.262489318847654
13.051629066467285
10.296016693115234
6.957176208496094
3.063224077224731
-1.3267977237701414
-6.164484024047851
-11.365318298339842
-16.826717376708984
-22.37230110168457
-27.636215209960938
-32.20956039428711
-35.837833404541016
-38.31513595581054
-39.526920318603516
-39.592445373535156
-38.53982162475586
-36.46980285644531
-33.88706588745117
-31.236747741699215
-28.738298416137695
-26.613529205322266
-24.76039695739746
-22.722061157226562
-20.41035652160644
-17.649446487426758
-13.654439926147461
-7.748151779174804
0.6262255907058715
12.269839286804197
27.61518859863281
46.75663757324219
70.50772857666016
98.03732299804688
125.66864776611327
149.8036651611328
166.88803100585935
177.6854705810547
189.66180419921872
208.53776550292966
234.83502197265625
258.38348388671875
256.492919921875
207.9313049316406
101.07496643066405
-58.824363708496094
-246.2252197265625
-428.19323730468744
-575.1525268554688
-667.4890747070312
-701.2252197265625
-684.1919555664061
-626.6770629882812
-541.1921997070312
-441.64114379882807
-338.7045593261719
-246.53634643554688
-177.75546264648438
-134.700439453125
-115.50211334228514
-110.61399841308594
-106.51605224609375
-97.93587493896484
-84.59202575683594
-70.20774841308594
-61.29149627685546
-59.30258178710937
-61.640525817871094
-64.8037109375
-65.21668243408203
-61.789497375488274
-55.379215240478516
-47.04677963256836
-37.88564300537109
-28.682405471801754
-20.285865783691406
-13.6898832321167
-9.418553352355957
-7.551557540893554
-7.8114118576049805
-9.72767448425293
-12.880565643310547
-16.866762161254883
-21.175640106201172
-25.22570037841797
-28.624525070190426
-31.192920684814453
-32.894775390625
-33.794944763183594
-33.930946350097656
-33.3066291809082
-31.96667671203613
-30.018779754638672
-27.56102752685547
-24.67805290222168
-21.459403991699215
-17.95442771911621
-14.242793083190916
-10.450653076171875
-6.678407192230225
-3.0178170204162598
0.46113198995590204
3.7349977493286133
6.792001724243164
9.61590003967285
12.208967208862305
14.589218139648436
16.77796173095703
18.819000244140625
20.757247924804688
22.626808166503906
24.474782943725586
26.348819732666016
28.302337646484375
30.401508331298828
32.69826126098633
35.22914123535156
38.021915435791016
41.09091186523437
44.44347763061523
48.08728790283203
52.02046203613281
56.23033142089844
60.70582580566406
65.4334487915039
70.39994812011719
75.59649658203125
81.0088119506836
86.61710357666014
92.39924621582031
98.33000946044922
104.38521575927734
110.54350280761719
116.7824478149414
123.07818603515624
129.40716552734372
135.7452850341797
142.0694122314453
148.35775756835938
154.58560180664062
160.72537231445312
166.74833679199216
172.62469482421875
178.32481384277344
183.81988525390625
189.08065795898435
194.07769775390625
198.78309631347653
203.170654296875
207.21572875976562
210.8955535888672
214.18856811523435
217.0743408203125
219.53431701660153
221.55218505859375
223.11373901367188
224.2069091796875
224.82183837890625
224.95059204101562
224.58763122558594
223.730224609375
222.3779144287109
220.5325927734375
218.19821166992188
215.3805694580078
212.08779907226562
208.33049011230466
204.12136840820312
199.47531127929688
194.4092559814453
188.94203186035156
183.0946044921875
176.89012145996094
170.35342407226562
163.51083374023438
156.39007568359375
149.02003479003903
141.4306182861328
133.6527862548828
125.71788024902342
117.65745544433594
109.50318145751953
101.28656768798827
93.03890991210938
84.79118347167969
76.5736312866211
68.41564178466795
60.345649719238274
52.39101028442383
44.577896118164055
36.93121337890625
29.47441482543945
22.22935676574707
15.21632194519043
8.453948020935059
1.9592058658599851
-4.252627372741699
-10.168107986450195
-15.775707244873045
-21.065803527832028
-26.030733108520508
-30.6647891998291
-34.9642448425293
-38.92742156982422
-42.55464172363281
-45.84817504882812
-48.81214904785156
-51.45246124267578
-53.776710510253906
-55.7940788269043
-57.51522064208984
-58.95207977294921
-60.117752075195305
-61.0263442993164
-61.69277954101562
-62.132698059082024
-62.3623046875
-62.398174285888665
-62.25712203979492
-61.956058502197266
-61.51189422607421
-60.941402435302734
-60.26110076904296
-59.48710632324218
-58.63513183593749
-57.720291137695305
-56.75709915161133
-55.75938415527344
-54.74019622802734
-53.71179580688476
-52.68556213378906
-51.6719627380371
-50.680469512939446
-49.71955871582031
-48.796600341796875
-47.91786193847656
-47.0885009765625
-46.312515258789055
-45.59276580810547
-44.931026458740234
-44.32801818847656
-43.783485412597656
-43.29631042480468
-42.864540100097656
-42.485511779785156
-42.15593338012695
-41.871917724609375
-41.62914657592773
-41.42292785644531
-41.24824523925781
-41.0998306274414
-40.97226333618163
-40.860015869140625
-40.75764083862304
-40.659854888916016
-40.5615348815918
-40.457805633544915
-40.34413909912109
-40.21635818481445
-40.07075500488281
-39.904136657714844
-39.713623046875
-39.4966926574707
-39.2513084411621
-38.975868225097656
-38.66933822631836
-38.331321716308594
-37.961936950683594
-37.56180572509765
-37.13224411010742
-36.675193786621094
-36.19316482543945
-35.68922424316406
-35.16667556762695
-34.62895202636719
-34.079689025878906
-33.52259063720703
-32.9615478515625
-32.40060424804687
-31.843666076660156
-31.294492721557614
-30.756900787353516
-30.234630584716797
-29.731422424316406
-29.251018524169922
-28.796524047851562
-28.37038421630859
-27.97473907470703
-27.61128234863281
-27.281145095825195
-26.985090255737305
-26.72297096252441
-26.493732452392578
-26.29633903503418
-26.129636764526364
-25.99205780029297
-25.88177490234375
-25.796295166015625
-25.732292175292965
-25.68627166748047
-25.65452766418457
-25.632633209228516
-25.61563110351562
-25.597949981689453
-25.573509216308594
-25.536657333374023
-25.48232841491699
-25.40571594238281
-25.30242156982422
-25.16799926757812
-24.99793243408203
-24.78861808776855
-24.53714942932129
-24.240612030029297
-23.896385192871094
-23.501750946044922
-23.053804397583004
-22.551261901855465
-21.99433135986328
-21.383323669433594
-20.719270706176758
-20.004364013671875
-19.241275787353516
-18.434778213500977
-17.591693878173825
-16.717763900756836
-15.81791591644287
-14.897648811340332
-13.96232795715332
-13.017350196838379
-12.068704605102539
-11.120474815368652
-10.175052642822266
-9.237239837646484
-8.31415843963623
-7.414172172546387
-6.5462775230407715
-5.71725606918335
-4.931182384490967
-4.192617416381836
-3.506233692169189
-2.8743410110473633
-2.2973766326904292
-1.7710431814193726
-1.2878620624542236
-0.8465819358825682
-0.45134532451629633
-0.11047105491161346
0.16331605613231656
0.3648514747619629
0.49922606348991394
0.5702928304672241
0.5809158682823181
0.5422517657279968
0.4694825410842895
0.39148861169815063
0.35194218158721924
0.37479096651077265
0.46439695358276367
0.6194928884506226
0.8308270573616028
1.1021243333816528
1.4557896852493284
1.9061975479125974
2.460914134979248
3.1312236785888667
3.9151494503021236
4.81132698059082
5.830777168273926
6.945833206176757
8.10043716430664
9.224294662475586
10.201141357421875
10.941258430480957
11.411242485046387
11.571614265441893
11.394160270690918
10.872851371765135
9.944557189941406
8.556836128234863
6.798250198364258
4.796278953552245
2.7176666259765625
0.8098418116569519
-0.7899970412254332
-2.005689859390259
-2.5695729255676265
-2.154592514038086
-0.6980143189430237
1.6466315984725952
4.473552227020264
7.169090270996093
9.45685863494873
11.390143394470213
12.770047187805176
13.254438400268553
13.006345748901367
12.432462692260742
12.153919219970703
13.196487426757812
16.06865882873535
21.529300689697266
31.464387893676754
47.47865295410156
69.54286956787108
94.4853286743164
117.55885314941406
135.24752807617188
146.9508514404297
158.2734832763672
175.59317016601562
202.41749572753906
241.94708251953122
289.4838562011719
335.802734375
371.119140625
377.1851501464844
338.81488037109375
249.47567749023435
108.26432800292969
-68.44017028808594
-254.7727508544922
-426.87139892578125
-561.1788940429688
-643.9728393554688
-672.925537109375
-649.262939453125
-579.1607666015625
-475.8889770507812
-354.951416015625
-234.8122100830078
-136.7037353515625
-70.27640533447266
-34.43526458740234
-20.894987106323242
-12.59393310546875
0.21426010131835935
18.30403900146484
38.6244773864746
52.96292877197265
58.13444519042968
56.73617553710937
52.44440460205078
50.306884765625
52.60124969482422
58.687435150146484
67.67640686035156
78.2952651977539
89.35626220703125
100.05497741699217
109.36502838134766
116.24497985839844
120.32144165039062
121.70091247558594
120.68165588378906
117.75434875488281
113.4228057861328
108.18220520019531
102.68089294433594
97.56292724609375
93.1927490234375
89.72608184814453
87.18894958496094
85.52256774902344
84.71282958984375
84.75812530517577
85.58712768554688
87.09367370605469
89.17524719238281
91.74317932128905
94.74367523193358
98.12789916992188
101.81755828857422
105.695068359375
109.61061096191405
113.44638061523438
117.13218688964842
120.62821960449219
123.92213439941406
127.00233459472655
129.85543823242188
132.4951934814453
134.96510314941406
137.3140106201172
139.59388732910156
141.84959411621094
144.11230468749997
146.42486572265625
148.83935546875
151.41275024414062
154.20883178710938
157.27230834960938
160.6265869140625
164.287353515625
168.2611083984375
172.54910278320312
177.15052795410156
182.0515594482422
187.22470092773435
192.64556884765622
198.29217529296872
204.14328002929688
210.18081665039062
216.38018798828122
222.71063232421875
229.14143371582028
235.64144897460938
242.1805725097656
248.73043823242188
255.26123046875
261.7417907714844
268.14260864257807
274.4346618652344
280.5899658203125
286.58184814453125
292.38098144531244
297.956298828125
303.2769775390625
308.3119506835937
313.0309753417969
317.4051208496094
321.4058227539062
325.0053100585937
328.1782531738281
330.90191650390625
333.1555786132812
334.92089843749994
336.1814270019531
336.9226379394531
337.1328430175781
336.802978515625
335.9263916015625
334.4986572265625
332.517822265625
329.98443603515625
326.9017944335937
323.27581787109375
319.1146545410156
314.428466796875
309.22949218749994
303.5323486328125
297.3537292480469
290.7125244140625
283.62927246093744
276.12640380859375
268.2277526855469
259.9590759277344
251.34777832031253
242.4227600097656
233.21398925781247
223.75241088867188
214.06988525390622
204.1990051269531
194.17285156249997
184.0248260498047
173.78808593749997
163.49540710449216
153.1790771484375
142.87075805664062
132.6013946533203
122.40110778808592
112.29886627197266
102.32238006591795
92.49822235107422
82.85171508789062
73.40673065185545
64.18572235107422
55.20940780639648
46.49686050415039
38.06549072265625
29.931045532226562
22.10758590698242
14.607437133789062
7.441176414489745
0.6176345348358154
-5.856064796447754
-11.974530220031738
-17.734149932861325
-23.133098602294922
-28.171375274658203
-32.850757598876946
-37.17473220825195
-41.14842224121094
-44.77853775024414
-48.073257446289055
-51.04211807250976
-53.69585418701172
-56.04625701904297
-58.10601425170898
-59.88867950439453
-61.408565521240234
-62.68062591552734
-63.720352172851555
-64.54364013671875
-65.16670227050781
-65.60604095458984
-65.87832641601561
-66.00025177001952
-65.9884033203125
-65.85920715332031
-65.62889099121094
-65.31340026855469
-64.92838287353514
-64.48912048339842
-64.01046752929688
-63.506778717041016
-62.99186706542969
-62.47901153564453
-61.98084640502929
-61.50922393798828
-61.07511901855469
-60.688594818115234
-60.35873794555664
-60.09370040893555
-59.90069580078125
-59.78589630126953
-59.75444793701172
-59.810554504394524
-59.95748138427734
-60.19766616821288
-60.53278732299805
-60.9634780883789
-61.48937606811523
-62.109291076660156
-62.821163177490234
-63.62217712402344
-64.50886535644531
-65.4769287109375
-66.52131652832031
-67.63644409179686
-68.81626892089844
-70.05429077148438
-71.34361267089842
-72.67668151855467
-74.04536437988281
-75.44112396240234
-76.85499572753906
-78.2778549194336
-79.70046997070312
-81.11331176757812
-82.50666809082031
-83.87104797363281
-85.19718170166016
-86.47618865966797
-87.6997833251953
-88.85968017578124
-89.94771575927734
-90.95635986328125
-91.87870788574219
-92.70834350585938
-93.43962860107422
-94.06716918945311
-94.5858917236328
-94.9919967651367
-95.28289031982422
-95.4568862915039
-95.51336669921875
-95.45233917236327
-95.27436828613281
-94.98129272460936
-94.57606506347656
-94.062255859375
-93.44412231445311
-92.72644042968749
-91.91462707519531
-91.01547241210938
-90.03721618652342
-88.98904418945312
-87.88111877441406
-86.72399902343749
-85.52850341796874
-84.30663299560547
-83.07115173339844
-81.83467102050781
-80.61001586914062
-79.4095230102539
-78.24492645263672
-77.12911987304688
-76.07571411132812
-75.09754943847656
-74.2072525024414
-73.41754913330078
-72.74064636230469
-72.18986511230467
-71.7791061401367
-71.51962280273438
-71.42040252685547
-71.48937225341797
-71.733154296875
-72.15716552734375
-72.76580810546875
-73.55994415283203
-74.5373306274414
-75.69662475585936
-77.03784179687499
-78.56137084960938
-80.26657104492188
-82.14917755126953
-84.20068359374999
-86.41160583496092
-88.7730712890625
-91.27418518066406
-93.9024658203125
-96.64100646972655
-99.46881866455077
-102.37052917480469
-105.33670043945312
-108.36268615722655
-111.44769287109375
-114.58317565917967
-117.74851226806639
-120.92288208007812
-124.08869934082031
-127.22122192382811
-130.29489135742185
-133.27316284179688
-136.1014404296875
-138.74337768554685
-141.18145751953125
-143.40283203125
-145.40682983398438
-147.18377685546875
-148.7042694091797
-149.948486328125
-150.9077606201172
-151.5710754394531
-151.9495391845703
-152.06109619140622
-151.90911865234375
-151.5387420654297
-151.01718139648438
-150.41781616210938
-149.87139892578122
-149.4903106689453
-149.3488006591797
-149.5430450439453
-150.13331604003906
-151.13510131835938
-152.6070556640625
-154.5887451171875
-157.0180206298828
-159.8213348388672
-162.81706237792966
-165.7032012939453
-168.33370971679688
-170.64578247070312
-172.54385375976562
-173.9566192626953
-174.7962951660156
-175.0371856689453
-174.94149780273435
-174.9051055908203
-175.0155487060547
-175.08599853515622
-174.7371368408203
-173.598388671875
-171.57327270507812
-168.45733642578125
-163.68382263183594
-156.88824462890625
-148.14447021484375
-137.622802734375
-125.99717712402344
-113.02214813232422
-96.7186279296875
-76.99880218505858
-54.98710250854492
-32.57060241699219
-15.536386489868164
-6.400269985198975
-2.507431745529175
-1.1893188953399658
5.8180012702941895
26.060993194580078
56.546707153320305
90.41307067871094
113.33992004394531
103.07901000976562
46.420181274414055
-61.19136047363281
-216.64407348632812
-399.8650207519531
-586.5233764648438
-754.55126953125
-881.0548706054688
-953.2069091796874
-967.9801025390624
-927.2496337890625
-839.8222656249999
-720.5748901367188
-586.3999633789062
-454.6573791503906
-344.31097412109375
-266.6563415527344
-222.08523559570312
-205.45812988281247
-203.1240234375
-201.34860229492188
-195.8945770263672
-186.54847717285156
-177.40078735351562
-174.27571105957028
-176.78866577148438
-181.674560546875
-185.63185119628906
-185.35960388183594
-180.44445800781247
-172.39556884765625
-162.51322937011716
-152.0735168457031
-142.25341796875
-133.93634033203125
-127.92761230468749
-124.6478500366211
-123.90951538085936
-125.23642730712889
-128.0574493408203
-131.77796936035156
-135.833251953125
-139.6714324951172
-142.7822265625
-144.8788299560547
-145.899658203125
-145.8737640380859
-144.90032958984375
-143.07540893554688
-140.46380615234372
-137.17413330078125
-133.3385467529297
-129.0552978515625
-124.41298675537108
-119.4903793334961
-114.3580551147461
-109.13490295410156
-103.95978546142577
-98.93177032470702
-94.1221466064453
-89.56727600097655
-85.2701416015625
-81.2392349243164
-77.47508239746094
-73.9473876953125
-70.61314392089842
-67.42269134521484
-64.32078552246092
-61.263633728027344
-58.21095275878906
-55.10981369018555
-51.90341567993164
-48.528194427490234
-44.91679763793945
-41.02227020263671
-36.813663482666016
-32.268226623535156
-27.37527275085449
-22.128223419189453
-16.524791717529297
-10.576835632324217
-4.305093765258789
2.27241587638855
9.137964248657227
16.274913787841793
23.668035507202145
31.294437408447266
39.12636184692383
47.13560485839844
55.2916030883789
63.56447601318359
71.9252700805664
80.34282684326172
88.78507995605469
97.2210922241211
105.61959075927733
113.94981384277344
122.18185424804688
130.28282165527344
138.21778869628903
145.9518585205078
153.4494476318359
160.67544555664062
167.59585571289062
174.17678833007812
180.38487243652344
186.18927001953125
191.56124877929688
196.47401428222656
200.9032440185547
204.82647705078125
208.22332763671872
211.07641601562497
213.37123107910156
215.09593200683594
216.24154663085935
216.80197143554685
216.77398681640625
216.15780639648438
214.95669555664062
213.1765441894531
210.8260955810547
207.9169158935547
204.46307373046875
200.48150634765622
195.9917449951172
191.01541137695312
185.57647705078125
179.70108032226562
173.4171905517578
166.75491333007812
159.74606323242188
152.4237365722656
144.82226562499997
136.97705078125
128.92434692382812
120.70103454589844
112.344482421875
103.89192962646483
95.38039398193358
86.84654998779297
78.326416015625
69.85533142089842
61.467727661132805
53.19673919677734
45.0741081237793
37.13014984130859
29.393531799316403
21.89118194580078
14.648181915283203
7.687544345855713
1.030184268951416
-5.305067539215087
-11.301565170288086
-16.94485282897949
-22.222686767578125
-27.125114440917965
-31.64447593688965
-35.77536010742187
-39.51463317871094
-42.86139678955078
-45.81694793701172
-48.38473510742187
-50.57032394409179
-52.38122558593749
-53.82685470581055
-54.91838836669922
-55.66867446899414
-56.09209823608398
-56.20450592041015
-56.02299499511718
-55.56581115722656
-54.85222244262695
-53.90232849121094
-52.73696517944336
-51.37752532958984
-49.84578704833984
-48.16378402709961
-46.35364532470703
-44.43747329711913
-42.43719482421875
-40.3744888305664
-38.27063751220703
-36.14640808105469
-34.02193450927734
-31.91659545898437
-29.848941802978512
-27.836580276489254
-25.89608001708984
-24.042850494384766
-22.291107177734375
-20.653736114501953
-19.142297744750973
-17.76701736450195
-16.53670883178711
-15.458782196044922
-14.539295196533201
-13.782891273498535
-13.192832946777342
-12.771108627319336
-12.518350601196287
-12.433853149414062
-12.515695571899412
-12.760690689086914
-13.164421081542969
-13.721397399902342
-14.425065994262694
-15.267812728881836
-16.241151809692383
-17.33578109741211
-18.541629791259766
-19.84793472290039
-21.243244171142578
-22.715398788452145
-24.25164031982422
-25.83872032165527
-27.463014602661133
-29.110656738281246
-30.76757049560547
-32.419551849365234
-34.052555084228516
-35.65270996093749
-37.20642852783203
-38.70068359375
-40.12285995483398
-41.460723876953125
-42.702701568603516
-43.83782958984375
-44.85567092895508
-45.74659729003906
-46.50182342529296
-47.11297607421875
-47.572593688964844
-47.87416458129883
-48.011871337890625
-47.98097229003906
-47.7778434753418
-47.39959716796874
-46.84429550170898
-46.11115264892578
-45.20011520385742
-44.112007141113274
-42.84857559204101
-41.412315368652344
-39.80681228637695
-38.03697204589844
-36.10894775390624
-34.03013610839844
-31.80904960632324
-29.455045700073242
-26.97856903076172
-24.391206741333008
-21.705101013183594
-18.933013916015625
-16.088281631469723
-13.184086799621582
-10.233936309814453
-7.252083778381348
-4.252727508544922
-1.2501084804534912
1.7407549619674683
4.705145835876464
7.62873888015747
10.495969772338867
13.291318893432615
15.99983787536621
18.605976104736328
21.09534454345703
23.455699920654297
25.674943923950195
27.741886138916012
29.647853851318356
31.384296417236328
32.943634033203125
34.32035446166992
35.50815963745117
36.50115585327148
37.29598617553711
37.89027404785156
38.28338623046875
38.479034423828125
38.483039855957024
38.30390930175781
37.953834533691406
37.44349288940429
36.78379821777344
35.98737335205078
35.062576293945305
34.016548156738274
32.85543823242187
31.579662322998043
30.193565368652344
28.711654663085934
27.150367736816403
25.531211853027344
23.88494300842285
22.235490798950195
20.603370666503906
19.01395034790039
17.485576629638672
16.033309936523438
14.674023628234862
13.417654037475584
12.270575523376465
11.249074935913086
10.382946014404297
9.710969924926758
9.262667655944822
9.04456615447998
9.042853355407715
9.229284286499022
9.569064140319822
10.024831771850584
10.546316146850584
11.065824508666992
11.511802673339844
11.827440261840819
11.984596252441404
11.947282791137694
11.67170238494873
11.176545143127441
10.51520538330078
9.790750503540039
9.211663246154785
8.962337493896484
9.148379325866697
9.974258422851562
11.695791244506836
14.310933113098145
17.63748550415039
21.29891014099121
24.667903900146484
27.32849884033203
29.167236328124996
29.93539047241211
29.254692077636715
27.184980392456055
24.182140350341793
21.110212326049805
19.252655029296875
19.504203796386715
22.303930282592773
28.28349494934082
38.2649040222168
52.84309387207031
72.3419952392578
96.5441436767578
124.89599609375
155.84075927734375
186.1988830566406
212.76028442382812
232.08352661132812
243.92596435546875
253.70806884765625
264.8009948730469
276.99249267578125
284.54583740234375
270.50396728515625
219.94299316406247
126.39098358154297
-10.912940979003906
-176.21826171874997
-345.287109375
-496.5801391601562
-606.4420166015625
-661.29052734375
-663.0866699218749
-618.3574218749999
-540.8292846679688
-447.7546997070312
-348.5852966308594
-251.7328338623047
-167.20606994628906
-99.9634552001953
-53.768707275390625
-29.591434478759766
-19.828308105468746
-15.595029830932617
-12.180682182312012
-6.92562198638916
-1.4554179906845093
0.23988395929336548
-1.5085567235946655
-4.252663612365723
-5.840569496154785
-3.780031681060791
2.309478521347046
11.026065826416016
21.16368865966797
31.57784271240234
40.95553970336913
48.247501373291016
52.95780944824219
54.90070343017578
54.298652648925774
51.72832489013672
47.68731689453124
42.639442443847656
37.2385025024414
32.117584228515625
27.661731719970703
24.09748077392578
21.461578369140625
19.667478561401367
18.694766998291016
18.532421112060543
19.110286712646484
20.331434249877926
22.09352874755859
24.30440902709961
26.906272888183594
29.8536434173584
33.075141906738274
36.46060562133789
39.870540618896484
43.19483184814453
46.36800765991211
49.355228424072266
52.15019226074219
54.74397277832031
57.12399291992187
59.30397033691406
61.32223892211914
63.22394561767578
65.06034851074219
66.87598419189453
68.70448303222656
70.59162139892578
72.59152221679688
74.76428222656249
77.177978515625
79.8817901611328
82.90405273437499
86.26486206054688
89.97396850585938
94.03666687011719
98.45714569091795
103.2266387939453
108.32341003417967
113.72836303710938
119.42385864257812
125.39285278320312
131.62142944335938
138.08819580078125
144.76490783691406
151.62252807617188
158.63035583496094
165.75843811035156
172.97836303710938
180.25973510742188
187.5706787109375
194.88043212890622
202.15838623046875
209.3748016357422
216.5010986328125
223.5057830810547
230.35517883300778
237.01541137695312
243.4520568847656
249.63125610351562
255.52049255371094
261.0870666503906
266.29885864257807
271.1263122558594
275.5419921875
279.5206298828125
283.0391845703125
286.07635498046875
288.6125183105469
290.63092041015625
292.1174011230469
293.06005859375
293.4495849609375
293.27899169921875
292.54400634765625
291.243408203125
289.3788452148437
286.9547424316406
283.977783203125
280.45709228515625
276.40447998046875
271.8341674804687
266.7630310058594
261.20989990234375
255.19561767578122
248.7430725097656
241.87702941894528
234.62432861328122
227.01356506347656
219.07472229003903
210.83894348144528
202.3385009765625
193.60647583007812
184.67677307128906
175.5837860107422
166.36183166503903
157.0449676513672
147.66696166992185
138.26103210449216
128.85995483398438
119.49571990966797
110.19933319091797
101.00064086914062
91.92830657958984
83.00980377197266
74.27115631103516
65.73690795898438
57.42988586425781
49.371089935302734
41.57975387573242
34.07329559326172
26.8672924041748
19.975433349609375
13.409450531005858
7.179116249084473
1.292293071746826
-4.245077133178711
-9.42896556854248
-14.257266998291016
-18.729833602905273
-22.8483943939209
-26.61646270751953
-30.039257049560547
-33.12358856201172
-35.87776565551758
-38.311500549316406
-40.4357681274414
-42.262630462646484
-43.80510711669922
-45.07707214355468
-46.093116760253906
-46.86845016479492
-47.41877746582031
-47.760169982910156
-47.90892791748047
-47.881500244140625
-47.694374084472656
-47.36398696899413
-46.90664291381835
-46.33837127685547
-45.67491912841796
-44.93164062499999
-44.12344741821289
-43.26475524902344
-42.369392395019524
-41.45054626464844
-40.52075195312499
-39.591819763183594
-38.67477416992187
-37.779823303222656
-36.916282653808594
-36.09254455566406
-35.316131591796875
-34.59367370605469
-33.93082809448242
-33.33236312866211
-32.80213928222656
-32.34313583374023
-31.957561492919922
-31.646835327148438
-31.411499023437496
-31.25137329101562
-31.16558837890625
-31.15262222290039
-31.21046447753906
-31.33658981323242
-31.527931213378906
-31.781091690063473
-32.09234619140625
-32.457611083984375
-32.8725471496582
-33.33247756958008
-33.832263946533196
-34.3665428161621
-34.92967224121094
-35.515750885009766
-36.11885070800781
-36.73296356201171
-37.35188293457031
-37.96943664550781
-38.5795669555664
-39.17629241943359
-39.75393295288086
-40.30698013305663
-40.829811096191406
-41.316997528076165
-41.76343536376953
-42.16432571411133
-42.515254974365234
-42.812137603759766
-43.050926208496094
-43.228065490722656
-43.34080505371093
-43.386917114257805
-43.36473846435547
-43.273113250732415
-43.11102294921874
-42.877937316894524
-42.57402038574218
-42.19953918457031
-41.75501251220703
-41.24131774902344
-40.65953063964844
-40.011375427246094
-39.2996711730957
-38.52773666381836
-37.69952392578125
-36.819732666015625
-35.89321136474609
-34.92536926269531
-33.92249298095703
-32.891143798828125
-31.83794784545898
-30.76981735229492
-29.693504333496094
-28.6160774230957
-27.545700073242188
-26.49087142944336
-25.45978546142578
-24.460815429687496
-23.5025577545166
-22.5939998626709
-21.74525260925293
-20.966480255126953
-20.266117095947266
-19.651704788208008
-19.130472183227536
-18.708683013916016
-18.392101287841793
-18.185033798217773
-18.088733673095703
-18.10391616821289
-18.2328987121582
-18.47833251953125
-18.84366226196289
-19.331813812255856
-19.94207763671875
-20.672943115234375
-21.523344039916992
-22.48887062072754
-23.563072204589844
-24.738033294677734
-26.00002098083496
-27.335128784179688
-28.735866546630856
-30.196052551269528
-31.71511459350586
-33.29769515991211
-34.93921661376953
-36.630165100097656
-38.36168670654297
-40.117557525634766
-41.877540588378906
-43.61756896972656
-45.298828125
-46.88498306274414
-48.35858917236328
-49.70738983154297
-50.931819915771484
-52.04002380371094
-53.02183532714844
-53.870094299316406
-54.58091735839844
-55.13016128540039
-55.5008430480957
-55.69058227539062
-55.69401168823242
-55.5275993347168
-55.241741180419915
-54.890640258789055
-54.54877853393554
-54.307613372802734
-54.22527313232422
-54.347686767578125
-54.713882446289055
-55.33708953857422
-56.22321701049805
-57.38909149169922
-58.86136245727538
-60.62188720703124
-62.60685729980469
-64.68537902832031
-66.62153625488281
-68.1888427734375
-69.21986389160155
-69.46212005615233
-68.60035705566406
-66.56346130371094
-63.4521598815918
-59.5676155090332
-55.589622497558594
-52.040740966796875
-49.16944885253906
-47.44390869140624
-47.32080078125
-48.73133468627929
-51.41252899169921
-54.7114028930664
-57.26836013793945
-58.03092956542969
-56.23865127563476
-50.78222274780273
-40.54814147949218
-24.80654144287109
-3.011978149414062
25.032640457153317
57.56710052490234
91.15116882324217
122.20417785644531
146.66934204101562
163.78717041015625
178.5049133300781
195.322998046875
215.36627197265625
232.02751159667966
227.06036376953125
181.20619201660156
83.42179870605469
-63.44396209716796
-239.11251831054688
-414.6893615722656
-563.835205078125
-670.1478271484375
-727.6185302734374
-738.6530761718749
-708.6640625
-640.4439697265625
-542.4104614257812
-427.75299072265625
-312.8631896972656
-219.51899719238278
-158.1120147705078
-126.62338256835936
-115.666748046875
-107.71969604492188
-93.51806640625
-73.64582061767577
-52.421302795410156
-38.34970474243163
-34.75442123413085
-38.91658020019531
-47.060302734375
-54.42890167236328
-58.31175994873047
-58.73115539550781
-56.23096466064453
-51.527664184570305
-45.36324310302734
-38.36440658569336
-31.225275039672848
-24.807130813598633
-19.87917137145996
-16.669349670410156
-15.063264846801756
-14.815844535827637
-15.505306243896484
-16.715618133544922
-18.097736358642575
-19.22747802734375
-19.705827713012695
-19.36415672302246
-18.162637710571286
-16.144102096557617
-13.443248748779297
-10.166289329528809
-6.397355556488037
-2.2552075386047363
2.121917724609375
6.61617374420166
11.120889663696289
15.54223346710205
19.824840545654293
23.91215896606445
27.75148010253906
31.313091278076172
34.577911376953125
37.54575729370117
40.232791900634766
42.66450119018555
44.8711051940918
46.89153289794922
48.768218994140625
50.54273986816406
52.267322540283196
53.99742889404297
55.79274368286132
57.71852493286132
59.82621765136719
62.155517578125
64.73892974853514
67.59912109374999
70.7529525756836
74.21167755126952
77.97692108154295
82.04206848144531
86.40081024169922
91.0457534790039
95.96913146972656
101.16422271728514
106.6186752319336
112.3157958984375
118.23578643798828
124.35504150390625
130.65043640136716
137.09967041015625
143.67868041992188
150.36219787597656
157.1244964599609
163.93878173828122
170.77911376953122
177.62023925781247
184.43389892578125
191.18910217285156
197.85350036621094
204.3931121826172
210.7739715576172
216.9626312255859
222.92495727539062
228.62673950195312
234.03506469726562
239.1183929443359
243.84677124023438
248.19213867187497
252.1275634765625
255.62750244140622
258.6682434082031
261.2280578613281
263.28738403320307
264.8292541503906
265.83880615234375
266.3037414550781
266.21441650390625
265.56402587890625
264.3486938476562
262.5674743652344
260.2220458984375
257.3164978027344
253.85743713378903
249.85421752929685
245.31860351562497
240.2650146484375
234.7100067138672
228.67236328125
222.1733245849609
215.23643493652344
207.88723754882812
200.15325927734375
192.06375122070312
183.64947509765622
174.94247436523435
165.97616577148438
156.78460693359375
147.40255737304688
137.8651428222656
128.20787048339844
118.4664077758789
108.67652130126953
98.8737564086914
89.0933380126953
79.3699722290039
69.73770904541016
60.229743957519524
50.878242492675774
41.71414947509765
32.76703643798828
24.064998626708984
15.634591102600098
7.500776767730713
-0.3130989074707031
-7.78544521331787
-14.896474838256834
-21.628253936767575
-27.964797973632812
-33.892112731933594
-39.398269653320305
-44.47349548339844
-49.11023712158203
-53.303070068359375
-57.048744201660156
-60.34611511230469
-63.19612884521484
-65.6017379760742
-67.56785583496094
-69.10122680664062
-70.21038055419922
-70.90560913085938
-71.19889831542969
-71.10386657714844
-70.63566589355469
-69.81085205078125
-68.6473159790039
-67.16412353515625
-65.38140869140624
-63.320259094238274
-61.00245666503906
-58.45042037963867
-55.68705749511719
-52.73567581176757
-49.61990737915038
-46.36360931396484
-42.990760803222656
-39.52534103393555
-35.991207122802734
-32.41200637817383
-28.811035156249996
-25.211109161376953
-21.634370803833004
-18.102191925048828
-14.63506507873535
-11.252521514892576
-7.9730706214904785
-4.8141441345214835
-1.7919853925704954
1.0783668756484985
3.7830615043640137
6.30953311920166
8.646553039550781
10.784225463867188
12.714155197143553
14.429481506347656
15.924802780151367
17.19625473022461
18.24151611328125
19.059690475463864
19.65134620666504
20.018478393554688
20.164314270019528
20.093259811401364
19.8108959197998
19.323942184448242
18.640331268310547
17.769216537475586
16.72086715698242
15.506580352783201
14.13859748840332
12.629995346069334
10.994647979736326
9.247099876403809
7.402265548706055
5.475375175476073
3.4818832874298096
1.4372308254241941
-0.643018901348114
-2.7431800365447994
-4.8477630615234375
-6.941468715667725
-9.0090970993042
-11.035909652709961
-13.007688522338867
-14.910473823547363
-16.731103897094727
-18.457374572753906
-20.077789306640625
-21.581939697265625
-22.960609436035156
-24.20538902282715
-25.308923721313477
-26.265113830566406
-27.06870651245117
-27.715360641479492
-28.201772689819336
-28.52554321289062
-28.685577392578125
-28.682361602783203
-28.517856597900387
-28.195484161376953
-27.71999359130859
-27.09721565246582
-26.334308624267578
-25.43981170654297
-24.42306137084961
-23.294288635253906
-22.0645637512207
-20.7451114654541
-19.347929000854492
-17.886188507080078
-16.37349700927734
-14.823917388916016
-13.252421379089354
-11.673759460449219
-10.102364540100098
-8.553963661193848
-7.044270992279053
-5.588550090789795
-4.202619552612305
-2.9011418819427486
-1.6969481706619263
-0.6027510762214661
0.3693590462207794
1.2094390392303467
1.9079799652099607
2.4567666053771973
2.8501996994018555
3.082397937774658
3.1474199295043945
3.0407514572143555
2.758320093154907
2.2977170944213867
1.6603935956954956
0.8503214120864868
-0.12632933259010315
-1.2601693868637085
-2.5416877269744873
-3.9603734016418457
-5.502825736999512
-7.158380508422852
-8.918272018432617
-10.77614402770996
-12.733044624328612
-14.78760528564453
-16.927528381347656
-19.13458251953125
-21.383377075195312
-23.63956642150879
-25.874515533447266
-28.064975738525387
-30.182380676269528
-32.20399856567383
-34.115631103515625
-35.903602600097656
-37.564117431640625
-39.100502014160156
-40.50411605834961
-41.74959945678711
-42.79670715332031
-43.608245849609375
-44.173023223876946
-44.51311492919922
-44.679206848144524
-44.73714447021484
-44.750946044921875
-44.773094177246094
-44.86195373535156
-45.08113098144531
-45.473838806152344
-46.07539749145508
-46.90549087524414
-47.94401550292968
-49.15933227539062
-50.569034576416016
-52.23505783081055
-54.16228103637695
-56.28155517578125
-58.401283264160156
-60.1801528930664
-61.293479919433594
-61.54921340942383
-60.815776824951165
-58.9316062927246
-55.86336517333984
-51.7450065612793
-46.8757209777832
-41.90882873535156
-37.63880157470703
-34.50444412231445
-32.61684799194335
-32.209007263183594
-33.16074752807617
-34.959228515625
-37.24211120605469
-38.03020095825195
-35.076690673828125
-28.10700035095215
-16.166255950927734
-0.4617705345153808
17.2022705078125
38.865974426269524
63.25572204589843
89.51025390624999
117.29739379882812
141.87490844726562
165.23373413085935
189.87564086914062
213.59851074218747
232.4840850830078
229.47970581054685
183.73985290527344
83.23886108398436
-74.25883483886717
-270.19555664062494
-471.49234008789057
-647.0050048828125
-769.35791015625
-824.6380615234374
-816.5610961914062
-752.8931884765625
-649.0413818359375
-526.794189453125
-402.6589965820312
-295.96234130859375
-220.8811340332031
-176.56816101074216
-157.51446533203125
-150.62123107910156
-141.0645294189453
-124.94445800781249
-103.84426879882811
-83.34526062011719
-70.82234191894531
-67.447021484375
-70.20873260498047
-75.04432678222656
-77.52894592285156
-76.08353424072264
-71.36576080322266
-64.255615234375
-55.79338836669922
-46.756370544433594
-37.79534912109375
-29.821943283081055
-23.778945922851562
-20.100971221923828
-18.71137809753418
-19.32743263244629
-21.520549774169922
-24.827072143554684
-28.778392791748047
-32.825714111328125
-36.403526306152344
-39.19087600708008
-41.09545135498047
-42.105178833007805
-42.291168212890625
-41.71278381347656
-40.40089797973633
-38.44641876220703
-35.977909088134766
-33.093250274658196
-29.867645263671875
-26.364324569702145
-22.629610061645508
-18.758335113525387
-14.892802238464355
-11.140995979309082
-7.579754829406737
-4.253857135772705
-1.1684900522232056
1.667462348937988
4.243254661560059
6.576189041137694
8.706819534301758
10.682446479797363
12.556229591369627
14.373207092285154
16.1673641204834
17.98499870300293
19.879714965820312
21.912973403930664
24.155538558959957
26.65967559814453
29.460243225097653
32.5836296081543
36.04432678222656
39.85247802734374
44.0154685974121
48.52684020996094
53.36724090576171
58.5197868347168
63.968692779541016
69.69908142089844
75.69929504394531
81.95001220703125
88.4254913330078
95.09901428222656
101.94200897216795
108.9266357421875
116.02604675292969
123.21134948730467
130.45204162597656
137.7186279296875
144.9816131591797
152.21224975585938
159.38285827636716
166.4625701904297
173.41799926757812
180.21554565429688
186.8206634521484
193.19911193847653
199.31753540039062
205.1422576904297
210.6396484375
215.77822875976562
220.52841186523435
224.86233520507812
228.75439453125
232.1805419921875
235.11846923828125
237.54879760742188
239.45489501953122
240.82273864746094
241.6409454345703
241.90083312988278
241.59632873535156
240.72467041015622
239.2860412597656
237.283203125
234.72145080566406
231.6085662841797
227.95495605468747
223.77384948730466
219.08105468749997
213.89463806152344
208.23486328125
202.12417602539062
195.58700561523438
188.64988708496094
181.34124755859375
173.69090270996094
165.73004150390625
157.49108886718747
149.00755310058594
140.31401062011716
131.44586181640625
122.43881988525389
113.32858276367188
104.15086364746094
94.94100952148438
85.73387145996092
76.56359100341797
67.46316528320312
58.46429443359374
49.59730529785156
40.89106750488281
32.37282943725586
24.06817626953125
16.000783920288086
8.192340850830078
0.6625833511352539
-6.570800304412842
-13.492204666137695
-20.088153839111325
-26.347373962402344
-32.26081085205078
-37.821548461914055
-43.02480697631835
-47.86786651611328
-52.34999847412109
-56.47247314453125
-60.238468170166016
-63.65299987792969
-66.72286987304688
-69.45660400390625
-71.86438751220703
-73.95803070068358
-75.7508544921875
-77.25752258300781
-78.493896484375
-79.4769058227539
-80.22430419921875
-80.75450134277342
-81.0864028930664
-81.23920440673828
-81.23222351074217
-81.08480834960938
-80.81614685058594
-80.44525146484375
-79.99076843261717
-79.47089385986328
-78.90324401855469
-78.30474853515625
-77.69155883789062
-77.07894897460936
-76.4812240600586
-75.91172790527344
-75.3827133178711
-74.90541076660156
-74.48997497558594
-74.14555358886719
-73.88021850585936
-73.70101928710938
-73.61402893066406
-73.62425231933592
-73.73563385009766
-73.9510040283203
-74.2720947265625
-74.69953918457031
-75.23289489746094
-75.87066650390624
-76.61030578613281
-77.44834899902342
-78.38052368164062
-79.40184020996094
-80.5066909790039
-81.68893432617188
-82.94193267822264
-84.25856018066405
-85.63123321533202
-87.0519027709961
-88.51216125488281
-90.00328063964842
-91.51634216308594
-93.04232788085936
-94.57206726074219
-96.09648132324217
-97.60665130615233
-99.09376525878906
-100.54925537109374
-101.9647216796875
-103.3319091796875
-104.6427230834961
-105.88931274414062
-107.06399536132812
-108.15928649902344
-109.16802978515625
-110.08350372314453
-110.89938354492186
-111.60995483398438
-112.21000671386719
-112.69477844238281
-113.06033325195312
-113.30345153808592
-113.42146301269531
-113.41227722167969
-113.27423095703125
-113.0060577392578
-112.60704040527344
-112.07699584960938
-111.41632843017578
-110.62625885009766
-109.70888519287108
-108.66730499267578
-107.50559997558594
-106.22863769531249
-104.84201049804688
-103.3521728515625
-101.76631164550781
-100.0921630859375
-98.33799743652344
-96.51268768310545
-94.62550354003906
-92.68636322021484
-90.70591735839844
-88.69512176513672
-86.6655502319336
-84.62968444824219
-82.60018157958984
-80.58956909179688
-78.61107635498047
-76.67798614501952
-74.80369567871094
-73.00224304199219
-71.28631591796874
-69.66693115234374
-68.15481567382812
-66.75997924804688
-65.49168395996094
-64.35932159423828
-63.37081909179687
-62.53246307373046
-61.85166931152343
-61.33518981933593
-60.98824310302734
-60.81523895263672
-60.81692504882812
-60.99028015136718
-61.33060073852538
-61.83015823364257
-62.47924041748046
-63.269981384277344
-64.19320678710938
-65.23861694335938
-66.40014648437499
-67.67133331298828
-69.04925537109375
-70.53660583496094
-72.12596130371092
-73.8014144897461
-75.54354858398438
-77.32617950439453
-79.12523651123047
-80.92453002929688
-82.70506286621094
-84.44558715820311
-86.13377380371094
-87.75651550292969
-89.30533599853514
-90.7776412963867
-92.15627288818358
-93.41754150390624
-94.52349853515625
-95.4236068725586
-96.09534454345703
-96.53717041015624
-96.76448059082031
-96.81298065185547
-96.70819091796874
-96.47284698486328
-96.1574478149414
-95.82394409179686
-95.52029418945312
-95.28897857666014
-95.1336669921875
-95.066650390625
-95.15934753417969
-95.419677734375
-95.81260681152342
-96.26567840576172
-96.57885742187499
-96.57897186279297
-96.18350982666014
-95.18804931640625
-93.3233871459961
-90.57141876220702
-87.06733703613281
-83.15284729003905
-79.45967102050781
-76.37600708007811
-73.99264526367188
-72.57970428466797
-72.520751953125
-73.82783508300781
-76.18212127685547
-78.79143524169922
-80.42960357666016
-80.3272705078125
-78.1552505493164
-73.3284912109375
-64.99650573730469
-52.370349884033196
-34.86349105834961
-12.547325134277342
14.186840057373047
44.26692199707031
75.01646423339842
103.27345275878906
125.26487731933592
139.55270385742188
150.61375427246094
162.78877258300778
177.29495239257812
190.00062561035156
184.39526367187497
142.59999084472656
54.63600158691406
-82.64251708984375
-254.90191650390622
-436.8915405273437
-604.781982421875
-733.9976806640625
-808.7313232421875
-826.0445556640625
-788.7893066406249
-706.233642578125
-594.1015625
-468.5962829589844
-345.59109497070307
-242.5517120361328
-169.49035644531247
-126.51268005371092
-108.45904541015624
-102.24713134765625
-95.43101501464844
-84.48153686523438
-70.10084533691406
-57.214107513427734
-51.32049560546875
-52.049041748046875
-56.20384216308594
-60.078548431396484
-60.38803100585937
-56.632034301757805
-49.8443374633789
-41.00326538085937
-31.236011505126953
-21.524208068847656
-12.768537521362305
-5.98961877822876
-1.6886272430419922
0.20435416698455808
-0.014910370111465454
-1.8852171897888181
-4.910179138183594
-8.591639518737793
-12.349116325378416
-15.585886001586914
-17.962474822998047
-19.38030242919922
-19.841466903686523
-19.438024520874023
-18.2383975982666
-16.286468505859375
-13.687554359436033
-10.58061122894287
-7.0756001472473145
-3.2543487548828125
0.8183697462081909
5.094012260437011
9.476087570190428
13.822118759155273
18.024166107177734
22.007061004638672
25.72920036315918
29.186824798583984
32.373390197753906
35.28136444091796
37.92974853515625
40.36262512207031
42.63099670410156
44.7902717590332
46.88874053955078
48.96344757080078
51.06279373168945
53.2426872253418
55.56595230102539
58.103031158447266
60.906158447265625
64.01022338867188
67.44110107421875
71.21337127685547
75.33699798583984
79.81877899169922
84.65233612060547
89.81859588623047
95.3007583618164
101.08329772949217
107.15135192871094
113.49284362792969
120.08836364746094
126.9121856689453
133.93756103515625
141.13616943359375
148.48019409179688
155.9425506591797
163.4941864013672
171.10433959960935
178.74313354492188
186.38070678710938
193.98770141601562
201.53561401367185
208.99276733398438
216.32516479492188
223.49855041503903
230.4778137207031
237.228271484375
243.71600341796872
249.90701293945312
255.76760864257812
261.266357421875
266.3737487792968
271.06219482421875
275.3063659667969
279.0826416015625
282.36932373046875
285.1476135253906
287.40155029296875
289.11761474609375
290.2852172851562
290.89630126953125
290.9455261230469
290.4309692382812
289.3536682128906
287.71722412109375
285.52783203125
282.79446411132807
279.528564453125
275.7445068359375
271.4593505859375
266.6922912597656
261.4647827148437
255.80053710937497
249.72518920898438
243.26657104492188
236.4542694091797
229.31924438476562
221.89384460449216
214.2115936279297
206.30709838867185
198.21575927734372
189.9737548828125
181.61727905273438
173.18240356445312
164.70504760742188
156.220458984375
147.76327514648438
139.36720275878906
131.064697265625
122.8868179321289
114.86317443847656
107.02193450927734
99.38957214355469
91.99085235595703
84.84860229492188
77.9836654663086
71.4149169921875
65.1591567993164
59.23107147216797
53.6431770324707
48.405799865722656
43.52706909179687
39.01301956176758
34.86758041381836
31.092620849609375
27.68799018859863
24.651561737060543
21.979270935058594
19.66520881652832
17.701623916625977
16.079015731811523
14.786201477050781
13.810447692871094
13.137627601623535
12.752422332763672
12.638493537902832
12.77866744995117
13.155143737792969
13.74968147277832
14.543761253356932
15.518735885620115
16.655925750732422
17.936704635620114
19.342618942260742
20.855480194091793
22.45748138427734
24.131273269653317
25.860065460205078
27.627717971801758
29.4188175201416
31.218742370605465
33.01372528076172
34.79083251953125
36.53796005249023
38.243865966796875
39.89813232421875
41.49123764038086
43.01454162597656
44.4603385925293
45.821815490722656
47.09314727783203
48.26952362060547
49.34716415405273
50.32330322265624
51.196128845214844
51.96461868286132
52.6285400390625
53.188297271728516
53.64489364624023
53.99976348876953
54.25468826293945
54.41172409057617
54.47320556640625
54.441741943359375
54.32018280029296
54.11159896850585
53.81918716430663
53.44622039794922
52.996070861816406
52.47215270996094
51.877822875976555
51.21644592285156
50.491355895996094
49.70594024658203
48.86372375488281
47.968475341796875
47.024112701416016
46.034751892089844
45.004676818847656
43.938201904296875
42.839725494384766
41.71372604370117
40.564605712890625
39.39662933349609
38.213829040527344
37.02008819580078
35.81928634643555
34.615386962890625
33.412353515625
32.2142105102539
31.024961471557617
29.848682403564453
28.689792633056637
27.552879333496094
26.442501068115234
25.363105773925778
24.319011688232422
23.31440162658691
22.353534698486328
21.440744400024414
20.580089569091797
19.775564193725586
19.03113746643066
18.350601196289062
17.73757553100586
17.195266723632812
16.72605323791504
16.331232070922848
16.01129150390625
15.765899658203125
15.593993186950682
15.493907928466797
15.463048934936525
15.49801254272461
15.594827651977539
15.749245643615723
15.956893920898436
16.212894439697266
16.51152992248535
16.846145629882812
17.209558486938477
17.59417915344238
17.992153167724606
18.394906997680664
18.79244613647461
19.173845291137695
19.5279541015625
19.8439998626709
20.11176872253418
20.32146644592285
20.463157653808594
20.527280807495117
20.50568389892578
20.391437530517575
20.178085327148434
19.858581542968746
19.425231933593746
18.869651794433594
18.185035705566406
17.367338180541992
16.413829803466793
15.324272155761717
14.10109519958496
12.749165534973145
11.275501251220703
9.689826965332031
8.001962661743164
6.217498302459716
4.340217113494873
2.369012832641601
0.30011725425720215
-1.8653956651687622
-4.1220946311950675
-6.457383155822754
-8.853918075561523
-11.287630081176756
-13.728122711181639
-16.144298553466797
-18.508426666259762
-20.804550170898434
-23.020689010620117
-25.152864456176754
-27.198287963867188
-29.144611358642578
-30.985921859741207
-32.70376968383788
-34.26292419433593
-35.630523681640625
-36.78631210327148
-37.73125457763672
-38.488243103027344
-39.116920471191406
-39.67982482910156
-40.23384094238281
-40.849853515625
-41.575592041015625
-42.45526885986328
-43.53150939941406
-44.82521438598633
-46.33448028564453
-48.056804656982415
-50.02139663696288
-52.215633392333984
-54.600051879882805
-57.058921813964844
-59.338699340820305
-61.21544647216797
-62.47332382202148
-62.8269920349121
-62.06224060058594
-60.18117523193359
-57.32390594482422
-53.83861923217773
-50.33699417114257
-47.21990966796875
-44.81884765625
-43.72414779663086
-44.21561050415039
-46.1073112487793
-49.027217864990234
-52.130252838134766
-54.18734741210937
-54.405872344970696
-52.061676025390625
-45.75678253173828
-34.383724212646484
-17.25166320800781
6.560053825378418
36.04496765136719
67.65721893310547
98.12229919433594
123.87774658203125
143.66778564453125
163.05430603027344
186.9010314941406
215.57208251953125
243.64398193359375
252.1089172363281
220.0995330810547
135.8843536376953
-3.202041625976562
-180.11416625976562
-366.5008544921875
-536.6787109375
-666.6798706054686
-743.4513549804688
-766.2028808593749
-737.1417846679688
-663.4715576171875
-559.61572265625
-441.0805053710937
-326.3765869140625
-236.0262756347656
-177.53598022460938
-148.42944335937497
-139.5169677734375
-133.49468994140622
-121.72117614746094
-104.42510986328125
-85.14992523193358
-72.29077911376953
-68.84654998779297
-71.9837417602539
-77.98873901367188
-81.9181900024414
-81.52915954589844
-77.42466735839844
-70.39591217041014
-61.48551177978515
-51.66776275634765
-41.64045715332031
-32.388896942138665
-25.025220870971676
-20.040359497070312
-17.40851402282715
-16.89586639404297
-18.085762023925778
-20.535037994384766
-23.809759140014645
-27.348407745361325
-30.540470123291012
-33.03815841674805
-34.72212219238281
-35.578643798828125
-35.68984222412109
-35.103843688964844
-33.83399200439453
-31.956310272216797
-29.58791732788086
-26.821535110473633
-23.731246948242188
-20.37926864624023
-16.80666160583496
-13.091769218444824
-9.358789443969727
-5.714971542358398
-2.240998744964599
1.011539578437805
4.028997421264648
6.808705806732178
9.344411849975586
11.645017623901365
13.741310119628904
15.67356777191162
17.4899730682373
19.23660659790039
20.949447631835938
22.67123794555664
24.452306747436523
26.3503475189209
28.431922912597656
30.75091552734375
33.344032287597656
36.238040924072266
39.44914245605469
42.98699951171875
46.85874938964844
51.061912536621094
55.58168029785156
60.402584075927734
65.51026153564453
70.89057922363281
76.53163146972655
82.41656494140624
88.52190399169922
94.82112884521484
101.28578186035156
107.88827514648436
114.60173034667969
121.39791107177734
128.2469024658203
135.1185607910156
141.98281860351562
148.81057739257812
155.57348632812497
162.24046325683594
168.77772521972656
175.15069580078125
181.32408142089844
187.26307678222656
192.93359375
198.30145263671875
203.33258056640625
207.99465942382812
212.25753784179685
216.09291076660153
219.47445678710938
222.37753295898438
224.7790985107422
226.65853881835938
227.99801635742185
228.78231811523438
228.9988555908203
228.6377716064453
227.69190979003903
226.1571044921875
224.03250122070312
221.32015991210935
218.02474975585938
214.1535491943359
209.71646118164062
204.72613525390625
199.197998046875
193.15008544921875
186.60278320312497
179.5787200927734
172.1029052734375
164.20266723632812
155.90756225585938
147.24893188476562
138.25970458984375
128.9741973876953
119.42803192138672
109.65786743164062
99.70143127441406
89.59687805175781
79.38258361816406
69.09709167480469
58.77896881103515
48.46659851074219
38.198028564453125
28.010654449462887
17.940893173217773
8.02414608001709
-1.7053933143615723
-11.214913368225098
-20.473114013671875
-29.450416564941406
-38.11906814575195
-46.453174591064446
-54.428714752197266
-62.023597717285156
-69.21776580810547
-75.99327087402344
-82.33441925048828
-88.22781372070311
-93.66238403320312
-98.62944030761719
-103.12271118164061
-107.13838958740234
-110.67507171630858
-113.73367309570312
-116.31734466552734
-118.43136596679688
-120.08312225341797
-121.2819595336914
-122.03919982910155
-122.3679962158203
-122.28322601318358
-121.80140686035156
-120.94061279296875
-119.72034454345702
-118.16136169433594
-116.28544616699219
-114.11532592773438
-111.67433166503906
-108.98638916015625
-106.07579803466795
-102.96713256835938
-99.68509674072266
-96.25444030761717
-92.69985961914061
-89.04592895507811
-85.31697082519531
-81.53693389892578
-77.72929382324219
-73.91677856445311
-70.12138366699217
-66.36410522460938
-62.66491317749023
-59.042633056640625
-55.51488494873047
-52.09806060791015
-48.80729675292969
-45.656455993652344
-42.658145904541016
-39.82364273071289
-37.162891387939446
-34.684471130371094
-32.395530700683594
-30.301816940307614
-28.407659530639645
-26.715957641601562
-25.22824668884277
-23.944747924804688
-22.86442375183105
-21.98510360717773
-21.30362319946289
-20.815826416015625
-20.51661491394043
-20.400070190429684
-20.459392547607422
-20.686983108520508
-21.074542999267578
-21.61303329467773
-22.292715072631832
-23.103315353393555
-24.034080505371094
-25.073863983154297
-26.211349487304688
-27.435123443603516
-28.73373413085937
-30.095748901367184
-31.50971984863281
-32.96418380737305
-34.44773864746094
-35.94905090332031
-37.45691680908203
-38.9603157043457
-40.4483642578125
-41.91046905517578
-43.33650588989258
-44.716800689697266
-46.04215621948242
-47.30400848388672
-48.49427795410156
-49.60538482666015
-50.63045883178711
-51.56312561035156
-52.39740753173828
-53.127994537353516
-53.75017547607421
-54.25961685180663
-54.65275955200195
-54.926727294921875
-55.079139709472656
-55.10842514038085
-55.01382446289062
-54.79511642456055
-54.45279312133788
-53.988105773925774
-53.40262985229492
-52.69833374023437
-51.877552032470696
-50.94301223754883
-49.8981819152832
-48.74735260009765
-47.495574951171875
-46.148590087890625
-44.712772369384766
-43.195159912109375
-41.603767395019524
-39.94731521606445
-38.23469543457031
-36.4752197265625
-34.67851257324219
-32.854164123535156
-31.01226806640625
-29.163326263427734
-27.31752777099609
-25.48514175415039
-23.677064895629883
-21.903873443603516
-20.175998687744137
-18.504709243774414
-16.90079116821289
-15.374659538269043
-13.937206268310547
-12.598363876342772
-11.366559028625487
-10.250056266784668
-9.255987167358398
-8.389076232910156
-7.6539292335510245
-7.054443359374999
-6.593099117279052
-6.273028373718262
-6.096493721008301
-6.063392639160155
-6.1728620529174805
-6.423027515411377
-6.809051990509033
-7.324139595031738
-7.958703994750976
-8.699919700622559
-9.536643981933594
-10.457810401916504
-11.451522827148438
-12.5106201171875
-13.62868309020996
-14.800994873046873
-16.02956771850586
-17.312309265136715
-18.638574600219727
-19.997388839721676
-21.3724365234375
-22.738943099975586
-24.078901290893555
-25.37569999694824
-26.60724639892578
-27.760511398315426
-28.82611656188965
-29.792030334472653
-30.653949737548825
-31.405937194824215
-32.030479431152344
-32.50077438354492
-32.780155181884766
-32.8427734375
-32.68687438964843
-32.32636260986328
-31.787092208862305
-31.107177734375
-30.33275985717773
-29.5237865447998
-28.76350975036621
-28.127487182617184
-27.658607482910156
-27.37884521484375
-27.322311401367188
-27.538240432739254
-28.022705078125
-28.73128509521484
-29.557796478271484
-30.280296325683594
-30.724254608154293
-30.786466598510746
-30.249792098999023
-28.873516082763672
-26.638334274291992
-23.64792823791504
-20.221168518066406
-17.050765991210934
-14.663888931274414
-13.363218307495117
-13.67464828491211
-15.968889236450195
-20.064945220947266
-25.78041648864746
-32.587646484375
-38.9888916015625
-43.894538879394524
-45.62849426269531
-40.9202766418457
-28.663206100463867
-9.25934886932373
15.828062057495117
41.10851287841796
64.0106430053711
86.37865447998047
109.65509796142578
139.4642333984375
179.26832580566406
225.3924560546875
274.0479736328125
315.3052062988281
333.6732482910156
315.60369873046875
246.82843017578122
120.97261047363281
-52.863407135009766
-254.16156005859372
-451.51446533203125
-613.6517333984375
-720.7594604492188
-764.3101806640625
-751.4744262695312
-694.5492553710938
-603.1463623046875
-491.8353271484375
-370.8377380371093
-253.31765747070312
-159.3629455566406
-95.9957504272461
-63.899822235107415
-55.725540161132805
-52.52549362182617
-44.911922454833984
-31.4356689453125
-14.638934135437012
-3.480358362197876
-1.1957105398178098
-4.833292007446289
-10.578754425048828
-13.50900650024414
-11.532758712768555
-5.622191429138184
2.9841861724853516
13.01220703125
23.445775985717773
33.457679748535156
42.09376144409179
48.4757194519043
52.24266052246094
53.5808982849121
52.88380813598633
50.608612060546875
47.25625228881836
43.353763580322266
39.44353485107422
36.04853439331055
33.45521926879883
31.71510887145996
30.81989288330078
30.707237243652344
31.316471099853512
32.60879135131836
34.49506378173828
36.853050231933594
39.593994140625
42.6545524597168
45.97733306884765
49.51680755615234
53.18321990966797
56.843486785888665
60.401741027832024
63.79368591308594
66.98297119140625
69.96940612792969
72.74800109863281
75.31118774414062
77.67935943603514
79.89529418945312
82.00670623779297
84.06689453125
86.12121582031249
88.20354461669922
90.35945129394531
92.64063262939453
95.10411834716797
97.81427001953124
100.81710052490233
104.14081573486327
107.80528259277342
111.81948852539062
116.18783569335936
120.91213989257812
125.98133850097656
131.37193298339844
137.0623779296875
143.03216552734375
149.26141357421875
155.73298645019528
162.42271423339844
169.30038452148438
176.33497619628906
183.49411010742188
190.74606323242188
198.06027221679685
205.40444946289062
212.74494934082028
220.04910278320312
227.2845458984375
234.4197235107422
241.42420959472653
248.26522827148435
254.90811157226562
261.3180847167969
267.46026611328125
273.3002014160156
278.804931640625
283.941650390625
288.6783752441406
292.9853820800781
296.83538818359375
300.20312499999994
303.0660400390625
305.40325927734375
307.19616699218744
308.428955078125
309.0887756347656
309.16534423828125
308.6510925292968
307.54119873046875
305.83349609375
303.5290832519531
300.6320495605469
297.1489868164062
293.089111328125
288.46405029296875
283.2880859375
277.5780334472656
271.35327148437494
264.63531494140625
257.4476013183594
249.81573486328125
241.76712036132812
233.3311614990234
224.53884887695312
215.42257690429688
206.015869140625
196.35334777832028
186.47048950195312
176.40351867675778
166.189208984375
155.8643798828125
145.46560668945312
135.02926635742188
124.5911865234375
114.18653869628905
103.84974670410156
93.61408233642578
83.5114974975586
73.57269287109375
63.82693862915039
54.30194091796875
45.023750305175774
36.01657485961914
27.30268859863281
18.9024486541748
10.834239006042479
3.114421129226684
-4.242685317993164
-11.22485828399658
-17.821964263916016
-24.025897979736328
-29.83058929443359
-35.23197555541992
-40.22796630859375
-44.81845474243164
-49.0052604675293
-52.79207229614258
-56.18439483642578
-59.18948364257812
-61.8162612915039
-64.07520294189453
-65.97824096679688
-67.53863525390625
-68.7707748413086
-69.69013977050781
-70.31307983398438
-70.65670776367188
-70.73873901367188
-70.57741546630858
-70.19132995605469
-69.59931945800781
-68.82035064697264
-67.87337493896484
-66.77725219726562
-65.55055999755858
-64.21160125732422
-62.778266906738274
-61.2679557800293
-59.69751358032226
-58.083194732666016
-56.44065475463867
-54.784881591796875
-53.13025665283203
-51.49043655395508
-49.87835693359375
-48.306190490722656
-46.785308837890625
-45.32627868652344
-43.938785552978516
-42.63161087036133
-41.41260528564453
-40.288658142089844
-39.265750885009766
-38.348968505859375
-37.54252624511719
-36.8497428894043
-36.27309417724609
-35.81424331665039
-35.474067687988274
-35.25273132324219
-35.14972686767578
-35.16383743286133
-35.293209075927734
-35.53543853759765
-35.887638092041016
-36.34653091430664
-36.908531188964844
-37.569644927978516
-38.325523376464844
-39.171531677246094
-40.10273742675781
-41.113914489746094
-42.19953536987305
-43.3536376953125
-44.56979370117187
-45.84124755859374
-47.160953521728516
-48.52162170410156
-49.91575241088867
-51.33556747436523
-52.773048400878906
-54.22013473510742
-55.668701171875
-57.11071777343749
-58.53823089599609
-59.94323730468749
-61.317848205566406
-62.654449462890625
-63.94577407836914
-65.18495178222656
-66.36569213867188
-67.4819107055664
-68.52790832519531
-69.49856567382812
-70.3893051147461
-71.19597625732422
-71.9148941040039
-72.54254150390625
-73.07555389404297
-73.51113891601562
-73.84706115722655
-74.08162689208984
-74.21371459960938
-74.2427749633789
-74.16885375976562
-73.99308776855467
-73.71781921386717
-73.34627532958984
-72.88257598876952
-72.33150482177734
-71.69857788085936
-70.99056243896484
-70.21522521972655
-69.38111114501953
-68.49756622314453
-67.57432556152344
-66.62158203125
-65.6504669189453
-64.67265319824217
-63.699653625488274
-62.743186950683594
-61.81477355957031
-60.92541503906249
-60.08659362792968
-59.309749603271484
-58.605491638183594
-57.98405838012695
-57.455238342285156
-57.0282859802246
-56.71260452270508
-56.517539978027344
-56.45117187499999
-56.52086639404297
-56.73355865478515
-57.095806121826165
-57.61381530761719
-58.29173278808594
-59.13020706176758
-60.12643814086914
-61.27550888061523
-62.57101821899414
-64.00486755371094
-65.56665802001952
-67.24320220947266
-69.02059173583984
-70.88683319091797
-72.83303070068358
-74.85152435302734
-76.93302917480467
-79.06565093994139
-81.2342758178711
-83.42393493652342
-85.62336730957031
-87.82334899902344
-90.01651000976562
-92.19517517089844
-94.35090637207031
-96.48167419433594
-98.59185028076172
-100.6839599609375
-102.75566101074219
-104.79099273681639
-106.7553939819336
-108.6143569946289
-110.33939361572264
-111.89884185791016
-113.26943969726562
-114.43624877929688
-115.3770065307617
-116.08311462402342
-116.55589294433592
-116.78373718261717
-116.77200317382811
-116.5341110229492
-116.07305145263672
-115.41268920898438
-114.58454132080078
-113.61678314208984
-112.60444641113281
-111.68631744384766
-110.91422271728516
-110.26691436767578
-109.62979125976562
-108.77418518066406
-107.55722045898438
-105.95793151855467
-103.88256835937499
-101.15453338623045
-97.76078033447266
-93.94223022460938
-90.24611663818358
-87.46501922607422
-86.17240905761717
-86.47972106933594
-88.36412811279297
-92.00202941894531
-97.36024475097655
-103.82707977294922
-110.4616928100586
-116.10340118408203
-119.72216796875
-121.00488281249999
-119.04551696777344
-111.64949035644531
-97.33631896972656
-76.50492858886719
-52.86325454711914
-31.971870422363278
-17.544883728027344
-9.668399810791016
-2.5318570137023926
10.201346397399902
31.676931381225582
64.14935302734375
102.73517608642578
139.24530029296875
166.29249572753906
167.75956726074216
128.06138610839844
38.15593719482422
-107.92758178710938
-297.363037109375
-502.1361999511719
-692.9979248046875
-838.5989990234375
-919.896240234375
-936.4531860351562
-895.59716796875
-811.0692749023438
-700.0087280273438
-576.38232421875
-453.5030212402344
-346.9512634277343
-266.6558532714844
-214.49114990234375
-187.07713317871094
-172.5750274658203
-159.13925170898438
-143.02145385742188
-124.28474426269531
-107.48594665527344
-98.33594512939453
-96.77204895019531
-100.017333984375
-104.5710983276367
-106.43985748291014
-104.47887420654297
-99.52241516113281
-92.36962127685547
-84.12822723388672
-75.79085540771484
-67.94401550292969
-61.344284057617195
-56.79954528808594
-54.52277755737305
-54.33414459228515
-55.929145812988274
-58.76165008544922
-62.24406051635742
-65.91509246826172
-69.26807403564453
-71.81585693359375
-73.34888458251953
-73.80083465576172
-73.17425537109375
-71.59114837646484
-69.16148376464844
-65.97676849365234
-62.18450164794921
-57.93607711791992
-53.33880996704101
-48.49181365966797
-43.478206634521484
-38.38713836669922
-33.35728073120117
-28.50381278991699
-23.899940490722653
-19.5952205657959
-15.600255966186523
-11.920347213745117
-8.563843727111816
-5.508750915527344
-2.702554702758789
-0.08456601947546005
2.411226511001587
4.842819213867187
7.25441026687622
9.701432228088379
12.247193336486816
14.959608078002928
17.91307830810547
21.15907287597656
24.72764205932617
28.645092010498043
32.93049240112305
37.603515625
42.682411193847656
48.16209411621094
54.01338195800781
60.20442962646484
66.70878601074219
73.50367736816406
80.56861877441406
87.86883544921875
95.35757446289061
102.99752807617186
110.7659225463867
118.65873718261719
126.67637634277342
134.80282592773438
143.00608825683594
151.24072265625
159.462158203125
167.64404296875
175.77853393554688
183.85879516601562
191.86354064941406
199.7698211669922
207.56221008300778
215.2470703125
222.84272766113278
230.33697509765625
237.6736145019531
244.75802612304685
251.4974670410156
257.82891845703125
263.713623046875
269.13092041015625
274.05352783203125
278.43829345703125
282.234375
285.4000244140625
287.91229248046875
289.7442321777344
290.8533325195312
291.1669616699219
290.60452270507807
289.13360595703125
286.7850036621094
283.6427307128906
279.78839111328125
275.27447509765625
270.1368103027343
264.4044189453125
